-9.533096984721690925e-02,4.897451823559088036e-01,0.000000000000000000e+00
-1.600581989856609266e-01,6.821536920672536253e-01,0.000000000000000000e+00
-1.528662846369449324e-01,8.548279956543580749e-01,0.000000000000000000e+00
-1.600581989856609266e-01,6.722865890051332727e-01,0.000000000000000000e+00
-9.533096984721690925e-02,3.565392910172853203e-01,0.000000000000000000e+00
-1.025228841959329035e-01,4.079199302943727068e-02,0.000000000000000000e+00
-2.032096850779569475e-01,-1.841062534328424469e-02,0.000000000000000000e+00
-2.499571283446109793e-01,-1.841062534328424469e-02,0.000000000000000000e+00
-1.924218135548829423e-01,-2.827772840540449667e-02,0.000000000000000000e+00
-2.175935137753889637e-01,-2.827772840540449667e-02,0.000000000000000000e+00
-2.751288285651170562e-01,-3.814483146752475212e-02,0.000000000000000000e+00
-2.139975566010309804e-01,-5.294548606070512142e-02,0.000000000000000000e+00
-3.182803146574130770e-01,-6.281258912282537687e-02,0.000000000000000000e+00
-3.722196722727830753e-01,-4.307838299858487291e-02,0.000000000000000000e+00
-2.967045716112650111e-01,-7.267969218494563233e-02,0.000000000000000000e+00
-4.081792440163630742e-01,-7.761324371600575311e-02,0.000000000000000000e+00
-4.585226444573750615e-01,-1.022810013713063848e-01,0.000000000000000000e+00
-4.549266872830171060e-01,-1.565500682129677967e-01,0.000000000000000000e+00
-5.124620020727451708e-01,-1.713507228061481591e-01,0.000000000000000000e+00
-4.225630727137951181e-01,-2.354868927099298126e-01,0.000000000000000000e+00
-5.376337022932511367e-01,-2.601546503652304443e-01,0.000000000000000000e+00
-4.513307301086590950e-01,-2.453539957720500542e-01,0.000000000000000000e+00
-3.794115866214990973e-01,-3.045566141447715869e-01,0.000000000000000000e+00
-3.830075437958571083e-01,-2.946895110826513453e-01,0.000000000000000000e+00
-2.787247857394750117e-01,-2.305533411788696641e-01,0.000000000000000000e+00
-1.744420276830929428e-01,-2.552210988341702680e-01,0.000000000000000000e+00
-1.061188413702909145e-01,-2.305533411788696641e-01,0.000000000000000000e+00
2.693157408095516250e-02,-1.664171712750880383e-01,0.000000000000000000e+00
4.131540277838716829e-02,-1.466829651508475274e-01,0.000000000000000000e+00
3.771944560402916424e-02,-1.072145529023665056e-01,0.000000000000000000e+00
1.491941180091272412e-01,-7.761324371600575311e-02,0.000000000000000000e+00
8.087093169632518508e-02,-5.787903759176525609e-02,0.000000000000000000e+00
1.168305034399052117e-01,-4.307838299858487291e-02,0.000000000000000000e+00
1.455981608347692302e-01,3.092488996731701523e-02,0.000000000000000000e+00
1.455981608347692302e-01,2.599133843625689097e-02,0.000000000000000000e+00
1.204264606142632227e-01,5.065909609155752613e-02,0.000000000000000000e+00
1.132345462655472146e-01,7.532685374685815782e-02,0.000000000000000000e+00
1.491941180091272412e-01,4.079199302943727068e-02,0.000000000000000000e+00
8.087093169632518508e-02,6.052619915367778158e-02,0.000000000000000000e+00
1.168305034399052117e-01,5.559264762261764692e-02,0.000000000000000000e+00
1.348102893116952250e-01,9.506105987109865485e-02,0.000000000000000000e+00
1.096385890911892036e-01,8.519395680897841328e-02,0.000000000000000000e+00
1.096385890911892036e-01,7.039330221579802316e-02,0.000000000000000000e+00
1.348102893116952250e-01,8.026040527791827861e-02,0.000000000000000000e+00
1.312143321373372140e-01,9.012750834003853406e-02,0.000000000000000000e+00
1.635779467065592574e-01,1.197288175263992865e-01,0.000000000000000000e+00
1.671739038809172406e-01,1.493301267127600529e-01,0.000000000000000000e+00
2.067294327988552782e-01,1.937320904923011677e-01,0.000000000000000000e+00
2.426890045424352493e-01,2.332005027407821895e-01,0.000000000000000000e+00
2.606687904142253043e-01,2.183998481476017994e-01,0.000000000000000000e+00
2.858404906347312702e-01,1.690643328370005360e-01,0.000000000000000000e+00
3.110121908552372916e-01,1.147952659953391658e-01,0.000000000000000000e+00
2.894364478090892812e-01,1.345294721195796628e-01,0.000000000000000000e+00
2.534768760655092823e-01,1.147952659953391658e-01,0.000000000000000000e+00
1.887496469270652510e-01,9.506105987109865485e-02,0.000000000000000000e+00
1.527900751834852244e-01,9.012750834003853406e-02,0.000000000000000000e+00
1.312143321373372140e-01,9.012750834003853406e-02,0.000000000000000000e+00
1.671739038809172406e-01,1.147952659953391658e-01,0.000000000000000000e+00
1.599819895322012464e-01,9.999461140215877564e-02,0.000000000000000000e+00
1.024466747424731955e-01,9.999461140215877564e-02,0.000000000000000000e+00
1.614370255788115729e-02,8.519395680897841328e-02,0.000000000000000000e+00
9.525476039375720128e-02,1.049281629332189242e-01,0.000000000000000000e+00
7.367901734760917698e-02,1.098617144642790450e-01,0.000000000000000000e+00
1.132345462655472146e-01,6.545975068473790237e-02,0.000000000000000000e+00
3.771944560402916424e-02,8.519395680897841328e-02,0.000000000000000000e+00
5.210327430146116656e-02,9.999461140215877564e-02,0.000000000000000000e+00
7.727497452196718797e-02,1.789314358991208054e-01,0.000000000000000000e+00
1.060426319168311926e-01,1.295959205885195420e-01,0.000000000000000000e+00
2.354970901937192551e-01,4.572554456049739841e-02,0.000000000000000000e+00
3.829313343423973448e-01,-1.812178258682684007e-01,0.000000000000000000e+00
6.112746149141304874e-01,-2.206862381167494225e-01,0.000000000000000000e+00
4.260828204346934212e-01,9.259428410556859446e-02,0.000000000000000000e+00
1.995375184501392840e-01,1.591972297748802945e-01,0.000000000000000000e+00
-3.060374070877287106e-02,3.516057394862252550e-01,0.000000000000000000e+00
-1.420784131138708994e-01,4.897451823559088036e-01,1.927635024484003201e-01
0.000000000000000000e+00,0.000000000000000000e+00,1.927635024484003201e-01
0.000000000000000000e+00,0.000000000000000000e+00,1.927635024484003201e-01
0.000000000000000000e+00,0.000000000000000000e+00,1.927635024484003201e-01
0.000000000000000000e+00,0.000000000000000000e+00,1.927635024484003201e-01
0.000000000000000000e+00,0.000000000000000000e+00,1.927635024484003201e-01
0.000000000000000000e+00,0.000000000000000000e+00,1.927635024484003201e-01
0.000000000000000000e+00,0.000000000000000000e+00,1.927635024484003201e-01
0.000000000000000000e+00,0.000000000000000000e+00,1.927635024484003201e-01
0.000000000000000000e+00,0.000000000000000000e+00,1.927635024484003201e-01
0.000000000000000000e+00,0.000000000000000000e+00,1.927635024484003201e-01
0.000000000000000000e+00,0.000000000000000000e+00,1.927635024484003201e-01
0.000000000000000000e+00,0.000000000000000000e+00,1.927635024484003201e-01
0.000000000000000000e+00,0.000000000000000000e+00,1.927635024484003201e-01
0.000000000000000000e+00,0.000000000000000000e+00,1.927635024484003201e-01
0.000000000000000000e+00,0.000000000000000000e+00,1.927635024484003201e-01
0.000000000000000000e+00,0.000000000000000000e+00,1.927635024484003201e-01
0.000000000000000000e+00,0.000000000000000000e+00,1.927635024484003201e-01
0.000000000000000000e+00,0.000000000000000000e+00,1.927635024484003201e-01
0.000000000000000000e+00,0.000000000000000000e+00,1.927635024484003201e-01
0.000000000000000000e+00,0.000000000000000000e+00,1.927635024484003201e-01
0.000000000000000000e+00,0.000000000000000000e+00,1.927635024484003201e-01
0.000000000000000000e+00,0.000000000000000000e+00,1.927635024484003201e-01
0.000000000000000000e+00,0.000000000000000000e+00,1.927635024484003201e-01
0.000000000000000000e+00,0.000000000000000000e+00,1.927635024484003201e-01
0.000000000000000000e+00,0.000000000000000000e+00,1.927635024484003201e-01
0.000000000000000000e+00,0.000000000000000000e+00,1.927635024484003201e-01
0.000000000000000000e+00,0.000000000000000000e+00,1.927635024484003201e-01
0.000000000000000000e+00,0.000000000000000000e+00,1.927635024484003201e-01
0.000000000000000000e+00,0.000000000000000000e+00,1.927635024484003201e-01
0.000000000000000000e+00,0.000000000000000000e+00,1.927635024484003201e-01
0.000000000000000000e+00,0.000000000000000000e+00,1.927635024484003201e-01
0.000000000000000000e+00,0.000000000000000000e+00,1.927635024484003201e-01
0.000000000000000000e+00,0.000000000000000000e+00,1.927635024484003201e-01
0.000000000000000000e+00,0.000000000000000000e+00,1.927635024484003201e-01
0.000000000000000000e+00,0.000000000000000000e+00,1.927635024484003201e-01
0.000000000000000000e+00,0.000000000000000000e+00,1.927635024484003201e-01
0.000000000000000000e+00,0.000000000000000000e+00,1.927635024484003201e-01
0.000000000000000000e+00,0.000000000000000000e+00,1.927635024484003201e-01
0.000000000000000000e+00,0.000000000000000000e+00,1.927635024484003201e-01
0.000000000000000000e+00,0.000000000000000000e+00,1.927635024484003201e-01
0.000000000000000000e+00,0.000000000000000000e+00,1.927635024484003201e-01
0.000000000000000000e+00,0.000000000000000000e+00,1.927635024484003201e-01
0.000000000000000000e+00,0.000000000000000000e+00,1.927635024484003201e-01
0.000000000000000000e+00,0.000000000000000000e+00,1.927635024484003201e-01
0.000000000000000000e+00,0.000000000000000000e+00,1.927635024484003201e-01
0.000000000000000000e+00,0.000000000000000000e+00,1.927635024484003201e-01
0.000000000000000000e+00,0.000000000000000000e+00,1.927635024484003201e-01
0.000000000000000000e+00,0.000000000000000000e+00,1.927635024484003201e-01
0.000000000000000000e+00,0.000000000000000000e+00,1.927635024484003201e-01
0.000000000000000000e+00,0.000000000000000000e+00,1.927635024484003201e-01
0.000000000000000000e+00,0.000000000000000000e+00,1.927635024484003201e-01
0.000000000000000000e+00,0.000000000000000000e+00,1.927635024484003201e-01
0.000000000000000000e+00,0.000000000000000000e+00,1.927635024484003201e-01
0.000000000000000000e+00,0.000000000000000000e+00,1.927635024484003201e-01
0.000000000000000000e+00,0.000000000000000000e+00,1.927635024484003201e-01
0.000000000000000000e+00,0.000000000000000000e+00,1.927635024484003201e-01
0.000000000000000000e+00,0.000000000000000000e+00,1.927635024484003201e-01
0.000000000000000000e+00,0.000000000000000000e+00,1.927635024484003201e-01
0.000000000000000000e+00,0.000000000000000000e+00,1.927635024484003201e-01
0.000000000000000000e+00,0.000000000000000000e+00,1.927635024484003201e-01
0.000000000000000000e+00,0.000000000000000000e+00,1.927635024484003201e-01
0.000000000000000000e+00,0.000000000000000000e+00,1.927635024484003201e-01
0.000000000000000000e+00,0.000000000000000000e+00,1.927635024484003201e-01
0.000000000000000000e+00,0.000000000000000000e+00,1.927635024484003201e-01
0.000000000000000000e+00,0.000000000000000000e+00,1.927635024484003201e-01
0.000000000000000000e+00,0.000000000000000000e+00,1.927635024484003201e-01
0.000000000000000000e+00,0.000000000000000000e+00,1.927635024484003201e-01
0.000000000000000000e+00,0.000000000000000000e+00,1.927635024484003201e-01
0.000000000000000000e+00,0.000000000000000000e+00,1.927635024484003201e-01
0.000000000000000000e+00,0.000000000000000000e+00,1.927635024484003201e-01
0.000000000000000000e+00,0.000000000000000000e+00,1.927635024484003201e-01
0.000000000000000000e+00,0.000000000000000000e+00,1.927635024484003201e-01
0.000000000000000000e+00,0.000000000000000000e+00,1.927635024484003201e-01
0.000000000000000000e+00,0.000000000000000000e+00,1.927635024484003201e-01
0.000000000000000000e+00,0.000000000000000000e+00,1.927635024484003201e-01
0.000000000000000000e+00,0.000000000000000000e+00,1.927635024484003201e-01
0.000000000000000000e+00,0.000000000000000000e+00,1.927635024484003201e-01
