1.060426319168311926e-01,5.440142491975701322e-01,0.000000000000000000e+00
8.446688887068319607e-02,8.449608925922378333e-01,0.000000000000000000e+00
5.210327430146116656e-02,8.745622017785984470e-01,0.000000000000000000e+00
1.973965973223915787e-02,5.588149037907504946e-01,0.000000000000000000e+00
-1.262395483698285949e-02,2.430676058029024311e-01,0.000000000000000000e+00
-8.813905549850090115e-02,1.119068384307650953e-02,0.000000000000000000e+00
-7.015926962671088785e-02,-2.334417687434437241e-02,0.000000000000000000e+00
-1.240986272420809000e-01,-4.801193452964499370e-02,0.000000000000000000e+00
-1.852298992061669480e-01,-5.787903759176525609e-02,0.000000000000000000e+00
-1.384824559395129162e-01,-8.254679524706588778e-02,0.000000000000000000e+00
-1.780379848574509538e-01,-4.801193452964499370e-02,0.000000000000000000e+00
-1.816339420318089370e-01,-5.294548606070512142e-02,0.000000000000000000e+00
-2.068056422523149585e-01,-4.307838299858487291e-02,0.000000000000000000e+00
-2.427652139958950128e-01,-6.281258912282537687e-02,0.000000000000000000e+00
-2.499571283446109793e-01,-7.267969218494563233e-02,0.000000000000000000e+00
-2.571490426933270013e-01,-7.761324371600575311e-02,0.000000000000000000e+00
-2.931086144369070001e-01,-7.267969218494563233e-02,0.000000000000000000e+00
-3.003005287856230221e-01,-7.761324371600575311e-02,0.000000000000000000e+00
-3.038964859599810331e-01,-8.748034677812600857e-02,0.000000000000000000e+00
-3.578358435753510314e-01,-9.241389830918614323e-02,0.000000000000000000e+00
-4.081792440163630742e-01,-1.269487590266070165e-01,0.000000000000000000e+00
-4.225630727137951181e-01,-1.368158620887272581e-01,0.000000000000000000e+00
-4.405428585855851176e-01,-1.417494136197874066e-01,0.000000000000000000e+00
-4.261590298881531291e-01,-1.664171712750880383e-01,0.000000000000000000e+00
-4.800983875035231274e-01,-1.910849289303886422e-01,0.000000000000000000e+00
-4.585226444573750615e-01,-2.206862381167494225e-01,0.000000000000000000e+00
-4.513307301086590950e-01,-2.552210988341702680e-01,0.000000000000000000e+00
-4.800983875035231274e-01,-2.700217534273506859e-01,0.000000000000000000e+00
-3.506439292266350649e-01,-2.700217534273506859e-01,0.000000000000000000e+00
-3.182803146574130770e-01,-2.749553049584108066e-01,0.000000000000000000e+00
-2.535530855189689903e-01,-2.404204442409899056e-01,0.000000000000000000e+00
-1.780379848574509538e-01,-2.502875473031102027e-01,0.000000000000000000e+00
-1.061188413702909145e-01,-2.256197896478095433e-01,0.000000000000000000e+00
-8.094714114978489305e-02,-1.910849289303886422e-01,0.000000000000000000e+00
1.973965973223915787e-02,-1.664171712750880383e-01,0.000000000000000000e+00
4.131540277838716829e-02,-1.368158620887272581e-01,0.000000000000000000e+00
9.885071756811519839e-02,-8.254679524706588778e-02,0.000000000000000000e+00
1.204264606142632227e-01,-7.761324371600575311e-02,0.000000000000000000e+00
6.289114582453517177e-02,-6.774614065388549766e-02,0.000000000000000000e+00
1.096385890911892036e-01,-3.321127993646462440e-02,0.000000000000000000e+00
1.348102893116952250e-01,-1.841062534328424469e-02,0.000000000000000000e+00
5.929518865017718160e-02,-1.347707381222412043e-02,0.000000000000000000e+00
1.132345462655472146e-01,-1.841062534328424469e-02,0.000000000000000000e+00
7.367901734760917698e-02,-8.543522281163994439e-03,0.000000000000000000e+00
1.096385890911892036e-01,-1.841062534328424469e-02,0.000000000000000000e+00
5.210327430146116656e-02,-8.543522281163994439e-03,0.000000000000000000e+00
1.060426319168311926e-01,-3.609970750103867580e-03,0.000000000000000000e+00
7.727497452196718797e-02,-1.347707381222412043e-02,0.000000000000000000e+00
9.525476039375720128e-02,-8.543522281163994439e-03,0.000000000000000000e+00
9.165880321939919029e-02,-1.841062534328424469e-02,0.000000000000000000e+00
4.131540277838716829e-02,-2.827772840540449667e-02,0.000000000000000000e+00
1.384062464860532360e-01,1.612423537413663552e-02,0.000000000000000000e+00
7.008306017325117987e-02,-8.543522281163994439e-03,0.000000000000000000e+00
8.446688887068319607e-02,-1.347707381222412043e-02,0.000000000000000000e+00
8.806284604504119318e-02,-2.334417687434437241e-02,0.000000000000000000e+00
6.289114582453517177e-02,-3.814483146752475212e-02,0.000000000000000000e+00
6.648710299889318276e-02,-3.321127993646462440e-02,0.000000000000000000e+00
8.806284604504119318e-02,-1.841062534328424469e-02,0.000000000000000000e+00
8.446688887068319607e-02,-1.841062534328424469e-02,0.000000000000000000e+00
2.333561690659716192e-02,-1.841062534328424469e-02,0.000000000000000000e+00
1.973965973223915787e-02,-4.307838299858487291e-02,0.000000000000000000e+00
7.727497452196718797e-02,-2.827772840540449667e-02,0.000000000000000000e+00
4.131540277838716829e-02,-2.827772840540449667e-02,0.000000000000000000e+00
5.929518865017718160e-02,-3.321127993646462440e-02,0.000000000000000000e+00
6.289114582453517177e-02,-2.334417687434437241e-02,0.000000000000000000e+00
1.973965973223915787e-02,-5.294548606070512142e-02,0.000000000000000000e+00
4.131540277838716829e-02,-3.321127993646462440e-02,0.000000000000000000e+00
1.132345462655472146e-01,-1.841062534328424469e-02,0.000000000000000000e+00
-2.700778353441486701e-02,-2.827772840540449667e-02,0.000000000000000000e+00
4.850731712710316945e-02,-1.841062534328424469e-02,0.000000000000000000e+00
5.569923147581917061e-02,-1.841062534328424469e-02,0.000000000000000000e+00
1.254774538352315325e-02,-2.827772840540449667e-02,0.000000000000000000e+00
5.210327430146116656e-02,1.323580780956258628e-03,0.000000000000000000e+00
8.806284604504119318e-02,1.323580780956258628e-03,0.000000000000000000e+00
9.165880321939919029e-02,4.572554456049739841e-02,0.000000000000000000e+00
1.276183749629792308e-01,7.039330221579802316e-02,0.000000000000000000e+00
1.599819895322012464e-01,3.585844149837714295e-02,0.000000000000000000e+00
6.648710299889318276e-02,-8.543522281163994439e-03,0.000000000000000000e+00
4.131540277838716829e-02,-3.321127993646462440e-02,0.000000000000000000e+00
7.727497452196718797e-02,-4.307838299858487291e-02,0.000000000000000000e+00
4.850731712710316945e-02,-5.787903759176525609e-02,0.000000000000000000e+00
-5.432040488266855725e-03,-2.827772840540449667e-02,0.000000000000000000e+00
5.929518865017718160e-02,-5.294548606070512142e-02,0.000000000000000000e+00
0.000000000000000000e+00,-8.748034677812600857e-02,0.000000000000000000e+00
-5.432040488266855725e-03,-2.827772840540449667e-02,0.000000000000000000e+00
2.333561690659716192e-02,-4.801193452964499370e-02,0.000000000000000000e+00
2.333561690659716192e-02,-4.801193452964499370e-02,0.000000000000000000e+00
-2.700778353441486701e-02,-4.307838299858487291e-02,0.000000000000000000e+00
4.850731712710316945e-02,-4.307838299858487291e-02,0.000000000000000000e+00
1.973965973223915787e-02,-4.801193452964499370e-02,0.000000000000000000e+00
-3.060374070877287106e-02,-4.801193452964499370e-02,0.000000000000000000e+00
4.491135995274516540e-02,-6.281258912282537687e-02,0.000000000000000000e+00
1.973965973223915787e-02,-3.814483146752475212e-02,0.000000000000000000e+00
0.000000000000000000e+00,-3.321127993646462440e-02,0.000000000000000000e+00
1.254774538352315325e-02,-6.774614065388549766e-02,0.000000000000000000e+00
8.951788209165152665e-03,2.599133843625689097e-02,0.000000000000000000e+00
3.771944560402916424e-02,2.599133843625689097e-02,0.000000000000000000e+00
9.885071756811519839e-02,-8.254679524706588778e-02,0.000000000000000000e+00
2.750526191116572927e-01,-3.982940932349139374e-01,0.000000000000000000e+00
5.033958996833903798e-01,-6.745729789742811455e-01,0.000000000000000000e+00
2.732546405244782872e-01,-3.612924567519629759e-01,0.000000000000000000e+00
2.930324049834472921e-01,-4.801193452964499370e-02,0.000000000000000000e+00
6.289114582453517177e-02,1.937320904923011677e-01,0.000000000000000000e+00
-6.656331245235289074e-02,3.417386364241049579e-01,1.927635024484003201e-01
0.000000000000000000e+00,0.000000000000000000e+00,1.927635024484003201e-01
0.000000000000000000e+00,0.000000000000000000e+00,1.927635024484003201e-01
0.000000000000000000e+00,0.000000000000000000e+00,1.927635024484003201e-01
0.000000000000000000e+00,0.000000000000000000e+00,1.927635024484003201e-01
0.000000000000000000e+00,0.000000000000000000e+00,1.927635024484003201e-01
0.000000000000000000e+00,0.000000000000000000e+00,1.927635024484003201e-01
0.000000000000000000e+00,0.000000000000000000e+00,1.927635024484003201e-01
0.000000000000000000e+00,0.000000000000000000e+00,1.927635024484003201e-01
0.000000000000000000e+00,0.000000000000000000e+00,1.927635024484003201e-01
0.000000000000000000e+00,0.000000000000000000e+00,1.927635024484003201e-01
0.000000000000000000e+00,0.000000000000000000e+00,1.927635024484003201e-01
0.000000000000000000e+00,0.000000000000000000e+00,1.927635024484003201e-01
0.000000000000000000e+00,0.000000000000000000e+00,1.927635024484003201e-01
0.000000000000000000e+00,0.000000000000000000e+00,1.927635024484003201e-01
0.000000000000000000e+00,0.000000000000000000e+00,1.927635024484003201e-01
0.000000000000000000e+00,0.000000000000000000e+00,1.927635024484003201e-01
0.000000000000000000e+00,0.000000000000000000e+00,1.927635024484003201e-01
0.000000000000000000e+00,0.000000000000000000e+00,1.927635024484003201e-01
0.000000000000000000e+00,0.000000000000000000e+00,1.927635024484003201e-01
0.000000000000000000e+00,0.000000000000000000e+00,1.927635024484003201e-01
0.000000000000000000e+00,0.000000000000000000e+00,1.927635024484003201e-01
0.000000000000000000e+00,0.000000000000000000e+00,1.927635024484003201e-01
0.000000000000000000e+00,0.000000000000000000e+00,1.927635024484003201e-01
0.000000000000000000e+00,0.000000000000000000e+00,1.927635024484003201e-01
0.000000000000000000e+00,0.000000000000000000e+00,1.927635024484003201e-01
0.000000000000000000e+00,0.000000000000000000e+00,1.927635024484003201e-01
0.000000000000000000e+00,0.000000000000000000e+00,1.927635024484003201e-01
0.000000000000000000e+00,0.000000000000000000e+00,1.927635024484003201e-01
0.000000000000000000e+00,0.000000000000000000e+00,1.927635024484003201e-01
0.000000000000000000e+00,0.000000000000000000e+00,1.927635024484003201e-01
0.000000000000000000e+00,0.000000000000000000e+00,1.927635024484003201e-01
0.000000000000000000e+00,0.000000000000000000e+00,1.927635024484003201e-01
0.000000000000000000e+00,0.000000000000000000e+00,1.927635024484003201e-01
0.000000000000000000e+00,0.000000000000000000e+00,1.927635024484003201e-01
0.000000000000000000e+00,0.000000000000000000e+00,1.927635024484003201e-01
0.000000000000000000e+00,0.000000000000000000e+00,1.927635024484003201e-01
0.000000000000000000e+00,0.000000000000000000e+00,1.927635024484003201e-01
0.000000000000000000e+00,0.000000000000000000e+00,1.927635024484003201e-01
0.000000000000000000e+00,0.000000000000000000e+00,1.927635024484003201e-01
0.000000000000000000e+00,0.000000000000000000e+00,1.927635024484003201e-01
0.000000000000000000e+00,0.000000000000000000e+00,1.927635024484003201e-01
0.000000000000000000e+00,0.000000000000000000e+00,1.927635024484003201e-01
0.000000000000000000e+00,0.000000000000000000e+00,1.927635024484003201e-01
0.000000000000000000e+00,0.000000000000000000e+00,1.927635024484003201e-01
0.000000000000000000e+00,0.000000000000000000e+00,1.927635024484003201e-01
0.000000000000000000e+00,0.000000000000000000e+00,1.927635024484003201e-01
0.000000000000000000e+00,0.000000000000000000e+00,1.927635024484003201e-01
0.000000000000000000e+00,0.000000000000000000e+00,1.927635024484003201e-01
