3.721434628193233674e-01,-1.269487590266070165e-01,0.000000000000000000e+00
4.872140923987794414e-01,-4.180282993591544205e-01,0.000000000000000000e+00
6.274564221987415369e-01,-2.946895110826513453e-01,0.000000000000000000e+00
4.332747347834093321e-01,1.859101113966669938e-02,0.000000000000000000e+00
2.031334756244972672e-01,3.092488996731701523e-02,0.000000000000000000e+00
6.289114582453517177e-02,2.183998481476017994e-01,0.000000000000000000e+00
1.671739038809172406e-01,3.121373272377442332e-01,0.000000000000000000e+00
3.002243193321632586e-01,4.453432185763676054e-01,0.000000000000000000e+00
2.426890045424352493e-01,7.018878981914941084e-01,0.000000000000000000e+00
2.786485762860153037e-01,7.216221043157345916e-01,0.000000000000000000e+00
2.462849617167932603e-01,4.058748063278866391e-01,0.000000000000000000e+00
1.671739038809172406e-01,9.012750834003853406e-02,0.000000000000000000e+00
1.759873860449148036e-03,0.000000000000000000e+00,0.000000000000000000e+00
1.614370255788115729e-02,-3.609970750103867580e-03,0.000000000000000000e+00
1.759873860449148036e-03,-1.347707381222412043e-02,0.000000000000000000e+00
-9.892692702157489248e-02,-2.334417687434437241e-02,0.000000000000000000e+00
-4.139161223184688321e-02,-2.334417687434437241e-02,0.000000000000000000e+00
-1.133107557190069226e-01,-2.827772840540449667e-02,0.000000000000000000e+00
-6.656331245235289074e-02,-3.321127993646462440e-02,0.000000000000000000e+00
-1.205026700677229168e-01,-2.334417687434437241e-02,0.000000000000000000e+00
-1.384824559395129162e-01,-2.334417687434437241e-02,0.000000000000000000e+00
-1.636541561600189376e-01,-3.321127993646462440e-02,0.000000000000000000e+00
-1.600581989856609266e-01,-3.321127993646462440e-02,0.000000000000000000e+00
-1.564622418113029434e-01,-2.827772840540449667e-02,0.000000000000000000e+00
-2.463611711702529683e-01,-4.801193452964499370e-02,0.000000000000000000e+00
-2.463611711702529683e-01,-7.267969218494563233e-02,0.000000000000000000e+00
-2.499571283446109793e-01,-4.307838299858487291e-02,0.000000000000000000e+00
-3.146843574830550661e-01,-8.254679524706588778e-02,0.000000000000000000e+00
-3.398560577035610319e-01,-9.734744984024626402e-02,0.000000000000000000e+00
-3.290681861804870545e-01,-1.121481044334266264e-01,0.000000000000000000e+00
-4.081792440163630742e-01,-1.318823105576671373e-01,0.000000000000000000e+00
-3.722196722727830753e-01,-1.565500682129677967e-01,0.000000000000000000e+00
-4.081792440163630742e-01,-1.664171712750880383e-01,0.000000000000000000e+00
-3.758156294471410863e-01,-2.009520319925089116e-01,0.000000000000000000e+00
-3.542398864009930759e-01,-2.157526865856893017e-01,0.000000000000000000e+00
-2.859167000881909781e-01,-2.058855835235690046e-01,0.000000000000000000e+00
-2.463611711702529683e-01,-1.960184804614487630e-01,0.000000000000000000e+00
-1.672501133343769208e-01,-2.009520319925089116e-01,0.000000000000000000e+00
-9.892692702157489248e-02,-1.713507228061481591e-01,0.000000000000000000e+00
-1.621991201134086180e-02,-1.614836197440279175e-01,0.000000000000000000e+00
4.131540277838716829e-02,-1.318823105576671373e-01,0.000000000000000000e+00
8.806284604504119318e-02,-1.170816559644867610e-01,0.000000000000000000e+00
1.132345462655472146e-01,-1.022810013713063848e-01,0.000000000000000000e+00
1.455981608347692302e-01,-7.761324371600575311e-02,0.000000000000000000e+00
1.995375184501392840e-01,-2.334417687434437241e-02,0.000000000000000000e+00
1.995375184501392840e-01,-4.307838299858487291e-02,0.000000000000000000e+00
1.851536897527072678e-01,-2.827772840540449667e-02,0.000000000000000000e+00
1.707698610552752516e-01,-3.609970750103867580e-03,0.000000000000000000e+00
2.247092186706452777e-01,2.105778690519676324e-02,0.000000000000000000e+00
1.923456041014232620e-01,1.612423537413663552e-02,0.000000000000000000e+00
1.635779467065592574e-01,2.599133843625689097e-02,0.000000000000000000e+00
1.491941180091272412e-01,0.000000000000000000e+00,0.000000000000000000e+00
2.283051758450032886e-01,2.105778690519676324e-02,0.000000000000000000e+00
1.527900751834852244e-01,4.572554456049739841e-02,0.000000000000000000e+00
1.923456041014232620e-01,3.092488996731701523e-02,0.000000000000000000e+00
1.779617754039912458e-01,3.092488996731701523e-02,0.000000000000000000e+00
1.959415612757812730e-01,4.079199302943727068e-02,0.000000000000000000e+00
1.779617754039912458e-01,5.065909609155752613e-02,0.000000000000000000e+00
1.995375184501392840e-01,4.079199302943727068e-02,0.000000000000000000e+00
1.815577325783492568e-01,5.559264762261764692e-02,0.000000000000000000e+00
1.851536897527072678e-01,3.585844149837714295e-02,0.000000000000000000e+00
1.707698610552752516e-01,2.599133843625689097e-02,0.000000000000000000e+00
1.887496469270652510e-01,4.079199302943727068e-02,0.000000000000000000e+00
2.139213471475712447e-01,3.585844149837714295e-02,0.000000000000000000e+00
1.635779467065592574e-01,1.612423537413663552e-02,0.000000000000000000e+00
1.671739038809172406e-01,2.599133843625689097e-02,0.000000000000000000e+00
1.563860323578432354e-01,2.599133843625689097e-02,0.000000000000000000e+00
1.815577325783492568e-01,2.599133843625689097e-02,0.000000000000000000e+00
1.455981608347692302e-01,1.612423537413663552e-02,0.000000000000000000e+00
1.635779467065592574e-01,1.612423537413663552e-02,0.000000000000000000e+00
1.276183749629792308e-01,1.612423537413663552e-02,0.000000000000000000e+00
1.599819895322012464e-01,1.612423537413663552e-02,0.000000000000000000e+00
1.491941180091272412e-01,1.612423537413663552e-02,0.000000000000000000e+00
1.348102893116952250e-01,-3.609970750103867580e-03,0.000000000000000000e+00
1.024466747424731955e-01,1.323580780956258628e-03,0.000000000000000000e+00
1.276183749629792308e-01,-2.334417687434437241e-02,0.000000000000000000e+00
1.096385890911892036e-01,0.000000000000000000e+00,0.000000000000000000e+00
1.420022036604112470e-01,-3.609970750103867580e-03,0.000000000000000000e+00
8.087093169632518508e-02,-1.841062534328424469e-02,0.000000000000000000e+00
1.024466747424731955e-01,-8.543522281163994439e-03,0.000000000000000000e+00
1.348102893116952250e-01,-3.609970750103867580e-03,0.000000000000000000e+00
6.289114582453517177e-02,-3.321127993646462440e-02,0.000000000000000000e+00
1.204264606142632227e-01,-8.543522281163994439e-03,0.000000000000000000e+00
6.648710299889318276e-02,-1.347707381222412043e-02,0.000000000000000000e+00
1.096385890911892036e-01,-3.609970750103867580e-03,0.000000000000000000e+00
1.240224177886212337e-01,2.599133843625689097e-02,0.000000000000000000e+00
1.815577325783492568e-01,5.559264762261764692e-02,0.000000000000000000e+00
1.563860323578432354e-01,7.039330221579802316e-02,0.000000000000000000e+00
1.851536897527072678e-01,5.065909609155752613e-02,0.000000000000000000e+00
1.527900751834852244e-01,1.119068384307650953e-02,0.000000000000000000e+00
1.312143321373372140e-01,-3.321127993646462440e-02,0.000000000000000000e+00
1.168305034399052117e-01,-2.334417687434437241e-02,0.000000000000000000e+00
8.087093169632518508e-02,-2.334417687434437241e-02,0.000000000000000000e+00
6.648710299889318276e-02,-4.307838299858487291e-02,0.000000000000000000e+00
7.367901734760917698e-02,-3.321127993646462440e-02,0.000000000000000000e+00
5.929518865017718160e-02,-3.814483146752475212e-02,0.000000000000000000e+00
6.289114582453517177e-02,-2.334417687434437241e-02,0.000000000000000000e+00
8.446688887068319607e-02,-3.609970750103867580e-03,0.000000000000000000e+00
2.693157408095516250e-02,-8.543522281163994439e-03,0.000000000000000000e+00
8.087093169632518508e-02,-2.334417687434437241e-02,0.000000000000000000e+00
8.087093169632518508e-02,-1.347707381222412043e-02,0.000000000000000000e+00
5.569923147581917061e-02,0.000000000000000000e+00,0.000000000000000000e+00
1.060426319168311926e-01,-8.543522281163994439e-03,0.000000000000000000e+00
7.367901734760917698e-02,-1.347707381222412043e-02,0.000000000000000000e+00
3.412348842967116713e-02,-2.827772840540449667e-02,0.000000000000000000e+00
9.165880321939919029e-02,0.000000000000000000e+00,0.000000000000000000e+00
6.289114582453517177e-02,-1.347707381222412043e-02,0.000000000000000000e+00
1.096385890911892036e-01,9.506105987109865485e-02,0.000000000000000000e+00
9.525476039375720128e-02,-3.609970750103867580e-03,0.000000000000000000e+00
1.815577325783492568e-01,-1.022810013713063848e-01,0.000000000000000000e+00
3.649515484706073454e-01,-4.180282993591544205e-01,0.000000000000000000e+00
5.051938782705693853e-01,-4.525631600765753215e-01,0.000000000000000000e+00
3.074162336808792806e-01,-1.392826378542573462e-01,0.000000000000000000e+00
1.132345462655472146e-01,2.599133843625689097e-02,0.000000000000000000e+00
-9.173501267285891214e-02,2.233333996786619480e-01,0.000000000000000000e+00
1.366082678988742305e-01,3.713399456104657381e-01,1.927635024484003201e-01
0.000000000000000000e+00,0.000000000000000000e+00,1.927635024484003201e-01
0.000000000000000000e+00,0.000000000000000000e+00,1.927635024484003201e-01
0.000000000000000000e+00,0.000000000000000000e+00,1.927635024484003201e-01
0.000000000000000000e+00,0.000000000000000000e+00,1.927635024484003201e-01
0.000000000000000000e+00,0.000000000000000000e+00,1.927635024484003201e-01
0.000000000000000000e+00,0.000000000000000000e+00,1.927635024484003201e-01
0.000000000000000000e+00,0.000000000000000000e+00,1.927635024484003201e-01
0.000000000000000000e+00,0.000000000000000000e+00,1.927635024484003201e-01
0.000000000000000000e+00,0.000000000000000000e+00,1.927635024484003201e-01
0.000000000000000000e+00,0.000000000000000000e+00,1.927635024484003201e-01
0.000000000000000000e+00,0.000000000000000000e+00,1.927635024484003201e-01
0.000000000000000000e+00,0.000000000000000000e+00,1.927635024484003201e-01
0.000000000000000000e+00,0.000000000000000000e+00,1.927635024484003201e-01
0.000000000000000000e+00,0.000000000000000000e+00,1.927635024484003201e-01
0.000000000000000000e+00,0.000000000000000000e+00,1.927635024484003201e-01
0.000000000000000000e+00,0.000000000000000000e+00,1.927635024484003201e-01
0.000000000000000000e+00,0.000000000000000000e+00,1.927635024484003201e-01
0.000000000000000000e+00,0.000000000000000000e+00,1.927635024484003201e-01
0.000000000000000000e+00,0.000000000000000000e+00,1.927635024484003201e-01
0.000000000000000000e+00,0.000000000000000000e+00,1.927635024484003201e-01
0.000000000000000000e+00,0.000000000000000000e+00,1.927635024484003201e-01
0.000000000000000000e+00,0.000000000000000000e+00,1.927635024484003201e-01
0.000000000000000000e+00,0.000000000000000000e+00,1.927635024484003201e-01
0.000000000000000000e+00,0.000000000000000000e+00,1.927635024484003201e-01
0.000000000000000000e+00,0.000000000000000000e+00,1.927635024484003201e-01
0.000000000000000000e+00,0.000000000000000000e+00,1.927635024484003201e-01
0.000000000000000000e+00,0.000000000000000000e+00,1.927635024484003201e-01
0.000000000000000000e+00,0.000000000000000000e+00,1.927635024484003201e-01
0.000000000000000000e+00,0.000000000000000000e+00,1.927635024484003201e-01
0.000000000000000000e+00,0.000000000000000000e+00,1.927635024484003201e-01
0.000000000000000000e+00,0.000000000000000000e+00,1.927635024484003201e-01
0.000000000000000000e+00,0.000000000000000000e+00,1.927635024484003201e-01
0.000000000000000000e+00,0.000000000000000000e+00,1.927635024484003201e-01
0.000000000000000000e+00,0.000000000000000000e+00,1.927635024484003201e-01
0.000000000000000000e+00,0.000000000000000000e+00,1.927635024484003201e-01
0.000000000000000000e+00,0.000000000000000000e+00,1.927635024484003201e-01
