1.254774538352315325e-02,6.052619915367778158e-02,0.000000000000000000e+00
8.446688887068319607e-02,-5.294548606070512142e-02,0.000000000000000000e+00
2.750526191116572927e-01,-3.686927840485532126e-01,0.000000000000000000e+00
5.033958996833903798e-01,-6.055032575394392325e-01,0.000000000000000000e+00
2.732546405244782872e-01,-2.922227353171212294e-01,0.000000000000000000e+00
1.887496469270652510e-01,2.105778690519676324e-02,0.000000000000000000e+00
-4.139161223184688321e-02,2.183998481476017994e-01,0.000000000000000000e+00
-1.205026700677229168e-01,4.058748063278866391e-01,0.000000000000000000e+00
1.973965973223915787e-02,5.440142491975701322e-01,0.000000000000000000e+00
5.569923147581917061e-02,7.906918257505763936e-01,0.000000000000000000e+00
2.333561690659716192e-02,9.140306140270796353e-01,0.000000000000000000e+00
-1.836083313908854061e-03,7.117550012536143500e-01,0.000000000000000000e+00
3.771944560402916424e-02,3.960077032657663421e-01,0.000000000000000000e+00
-9.533096984721690925e-02,8.026040527791827861e-02,0.000000000000000000e+00
-1.097147985446489116e-01,-2.334417687434437241e-02,0.000000000000000000e+00
-1.384824559395129162e-01,-1.347707381222412043e-02,0.000000000000000000e+00
-1.492703274625869214e-01,-3.814483146752475212e-02,0.000000000000000000e+00
-1.744420276830929428e-01,-1.841062534328424469e-02,0.000000000000000000e+00
-1.600581989856609266e-01,-3.321127993646462440e-02,0.000000000000000000e+00
-1.672501133343769208e-01,-4.307838299858487291e-02,0.000000000000000000e+00
-1.816339420318089370e-01,-2.827772840540449667e-02,0.000000000000000000e+00
-1.888258563805249590e-01,-4.801193452964499370e-02,0.000000000000000000e+00
-1.996137279035989365e-01,-5.787903759176525609e-02,0.000000000000000000e+00
-2.068056422523149585e-01,-5.294548606070512142e-02,0.000000000000000000e+00
-2.391692568215370018e-01,-6.281258912282537687e-02,0.000000000000000000e+00
-2.319773424728210076e-01,-1.022810013713063848e-01,0.000000000000000000e+00
-2.463611711702529683e-01,-8.254679524706588778e-02,0.000000000000000000e+00
-2.319773424728210076e-01,-9.734744984024626402e-02,0.000000000000000000e+00
-2.859167000881909781e-01,-1.220152074955468957e-01,0.000000000000000000e+00
-2.823207429138330227e-01,-1.368158620887272581e-01,0.000000000000000000e+00
-2.679369142164010342e-01,-1.614836197440279175e-01,0.000000000000000000e+00
-2.823207429138330227e-01,-1.861513773993285215e-01,0.000000000000000000e+00
-2.859167000881909781e-01,-2.009520319925089116e-01,0.000000000000000000e+00
-2.571490426933270013e-01,-2.157526865856893017e-01,0.000000000000000000e+00
-2.139975566010309804e-01,-2.256197896478095433e-01,0.000000000000000000e+00
-1.888258563805249590e-01,-2.404204442409899056e-01,0.000000000000000000e+00
-1.564622418113029434e-01,-2.354868927099298126e-01,0.000000000000000000e+00
-6.296735527799489363e-02,-2.453539957720500542e-01,0.000000000000000000e+00
-3.779565505748887222e-02,-2.009520319925089116e-01,0.000000000000000000e+00
8.951788209165152665e-03,-1.762842743372082799e-01,0.000000000000000000e+00
5.929518865017718160e-02,-1.565500682129677967e-01,0.000000000000000000e+00
8.087093169632518508e-02,-1.269487590266070165e-01,0.000000000000000000e+00
1.348102893116952250e-01,-9.241389830918614323e-02,0.000000000000000000e+00
1.096385890911892036e-01,-5.294548606070512142e-02,0.000000000000000000e+00
1.348102893116952250e-01,-3.321127993646462440e-02,0.000000000000000000e+00
1.384062464860532360e-01,-3.609970750103867580e-03,0.000000000000000000e+00
1.455981608347692302e-01,-3.609970750103867580e-03,0.000000000000000000e+00
1.240224177886212337e-01,3.585844149837714295e-02,0.000000000000000000e+00
1.276183749629792308e-01,3.585844149837714295e-02,0.000000000000000000e+00
1.024466747424731955e-01,3.092488996731701523e-02,0.000000000000000000e+00
9.885071756811519839e-02,5.065909609155752613e-02,0.000000000000000000e+00
9.165880321939919029e-02,6.545975068473790237e-02,0.000000000000000000e+00
8.806284604504119318e-02,4.079199302943727068e-02,0.000000000000000000e+00
9.525476039375720128e-02,6.545975068473790237e-02,0.000000000000000000e+00
8.806284604504119318e-02,5.559264762261764692e-02,0.000000000000000000e+00
7.008306017325117987e-02,6.052619915367778158e-02,0.000000000000000000e+00
7.727497452196718797e-02,7.039330221579802316e-02,0.000000000000000000e+00
7.367901734760917698e-02,6.545975068473790237e-02,0.000000000000000000e+00
8.087093169632518508e-02,6.545975068473790237e-02,0.000000000000000000e+00
7.008306017325117987e-02,6.052619915367778158e-02,0.000000000000000000e+00
5.929518865017718160e-02,6.545975068473790237e-02,0.000000000000000000e+00
8.446688887068319607e-02,5.065909609155752613e-02,0.000000000000000000e+00
5.569923147581917061e-02,5.065909609155752613e-02,0.000000000000000000e+00
7.008306017325117987e-02,5.559264762261764692e-02,0.000000000000000000e+00
4.850731712710316945e-02,4.079199302943727068e-02,0.000000000000000000e+00
5.569923147581917061e-02,4.079199302943727068e-02,0.000000000000000000e+00
5.569923147581917061e-02,5.065909609155752613e-02,0.000000000000000000e+00
7.008306017325117987e-02,2.105778690519676324e-02,0.000000000000000000e+00
3.412348842967116713e-02,3.585844149837714295e-02,0.000000000000000000e+00
3.412348842967116713e-02,3.092488996731701523e-02,0.000000000000000000e+00
4.491135995274516540e-02,2.105778690519676324e-02,0.000000000000000000e+00
4.850731712710316945e-02,4.079199302943727068e-02,0.000000000000000000e+00
8.951788209165152665e-03,6.545975068473790237e-02,0.000000000000000000e+00
9.885071756811519839e-02,6.052619915367778158e-02,0.000000000000000000e+00
9.525476039375720128e-02,1.147952659953391658e-01,0.000000000000000000e+00
9.885071756811519839e-02,9.999461140215877564e-02,0.000000000000000000e+00
1.024466747424731955e-01,8.026040527791827861e-02,0.000000000000000000e+00
7.367901734760917698e-02,8.026040527791827861e-02,0.000000000000000000e+00
5.210327430146116656e-02,2.599133843625689097e-02,0.000000000000000000e+00
4.491135995274516540e-02,0.000000000000000000e+00,0.000000000000000000e+00
1.614370255788115729e-02,1.119068384307650953e-02,0.000000000000000000e+00
3.412348842967116713e-02,1.612423537413663552e-02,0.000000000000000000e+00
8.951788209165152665e-03,1.323580780956258628e-03,0.000000000000000000e+00
1.759873860449148036e-03,1.323580780956258628e-03,0.000000000000000000e+00
-1.981586918569886238e-02,-1.841062534328424469e-02,0.000000000000000000e+00
1.973965973223915787e-02,3.092488996731701523e-02,0.000000000000000000e+00
2.333561690659716192e-02,1.612423537413663552e-02,0.000000000000000000e+00
8.951788209165152665e-03,3.585844149837714295e-02,0.000000000000000000e+00
1.759873860449148036e-03,1.323580780956258628e-03,0.000000000000000000e+00
-1.836083313908854061e-03,1.612423537413663552e-02,0.000000000000000000e+00
1.759873860449148036e-03,2.599133843625689097e-02,0.000000000000000000e+00
1.973965973223915787e-02,2.599133843625689097e-02,0.000000000000000000e+00
-2.700778353441486701e-02,3.092488996731701523e-02,0.000000000000000000e+00
-5.432040488266855725e-03,2.105778690519676324e-02,0.000000000000000000e+00
2.693157408095516250e-02,1.612423537413663552e-02,0.000000000000000000e+00
1.759873860449148036e-03,3.585844149837714295e-02,0.000000000000000000e+00
1.614370255788115729e-02,1.197288175263992865e-01,1.927635024484003201e-01
0.000000000000000000e+00,0.000000000000000000e+00,1.927635024484003201e-01
0.000000000000000000e+00,0.000000000000000000e+00,1.927635024484003201e-01
0.000000000000000000e+00,0.000000000000000000e+00,1.927635024484003201e-01
0.000000000000000000e+00,0.000000000000000000e+00,1.927635024484003201e-01
0.000000000000000000e+00,0.000000000000000000e+00,1.927635024484003201e-01
0.000000000000000000e+00,0.000000000000000000e+00,1.927635024484003201e-01
0.000000000000000000e+00,0.000000000000000000e+00,1.927635024484003201e-01
0.000000000000000000e+00,0.000000000000000000e+00,1.927635024484003201e-01
0.000000000000000000e+00,0.000000000000000000e+00,1.927635024484003201e-01
0.000000000000000000e+00,0.000000000000000000e+00,1.927635024484003201e-01
0.000000000000000000e+00,0.000000000000000000e+00,1.927635024484003201e-01
0.000000000000000000e+00,0.000000000000000000e+00,1.927635024484003201e-01
0.000000000000000000e+00,0.000000000000000000e+00,1.927635024484003201e-01
0.000000000000000000e+00,0.000000000000000000e+00,1.927635024484003201e-01
0.000000000000000000e+00,0.000000000000000000e+00,1.927635024484003201e-01
0.000000000000000000e+00,0.000000000000000000e+00,1.927635024484003201e-01
0.000000000000000000e+00,0.000000000000000000e+00,1.927635024484003201e-01
0.000000000000000000e+00,0.000000000000000000e+00,1.927635024484003201e-01
0.000000000000000000e+00,0.000000000000000000e+00,1.927635024484003201e-01
0.000000000000000000e+00,0.000000000000000000e+00,1.927635024484003201e-01
0.000000000000000000e+00,0.000000000000000000e+00,1.927635024484003201e-01
0.000000000000000000e+00,0.000000000000000000e+00,1.927635024484003201e-01
0.000000000000000000e+00,0.000000000000000000e+00,1.927635024484003201e-01
0.000000000000000000e+00,0.000000000000000000e+00,1.927635024484003201e-01
0.000000000000000000e+00,0.000000000000000000e+00,1.927635024484003201e-01
0.000000000000000000e+00,0.000000000000000000e+00,1.927635024484003201e-01
0.000000000000000000e+00,0.000000000000000000e+00,1.927635024484003201e-01
0.000000000000000000e+00,0.000000000000000000e+00,1.927635024484003201e-01
0.000000000000000000e+00,0.000000000000000000e+00,1.927635024484003201e-01
0.000000000000000000e+00,0.000000000000000000e+00,1.927635024484003201e-01
0.000000000000000000e+00,0.000000000000000000e+00,1.927635024484003201e-01
0.000000000000000000e+00,0.000000000000000000e+00,1.927635024484003201e-01
0.000000000000000000e+00,0.000000000000000000e+00,1.927635024484003201e-01
0.000000000000000000e+00,0.000000000000000000e+00,1.927635024484003201e-01
0.000000000000000000e+00,0.000000000000000000e+00,1.927635024484003201e-01
0.000000000000000000e+00,0.000000000000000000e+00,1.927635024484003201e-01
0.000000000000000000e+00,0.000000000000000000e+00,1.927635024484003201e-01
0.000000000000000000e+00,0.000000000000000000e+00,1.927635024484003201e-01
0.000000000000000000e+00,0.000000000000000000e+00,1.927635024484003201e-01
0.000000000000000000e+00,0.000000000000000000e+00,1.927635024484003201e-01
0.000000000000000000e+00,0.000000000000000000e+00,1.927635024484003201e-01
0.000000000000000000e+00,0.000000000000000000e+00,1.927635024484003201e-01
0.000000000000000000e+00,0.000000000000000000e+00,1.927635024484003201e-01
0.000000000000000000e+00,0.000000000000000000e+00,1.927635024484003201e-01
0.000000000000000000e+00,0.000000000000000000e+00,1.927635024484003201e-01
0.000000000000000000e+00,0.000000000000000000e+00,1.927635024484003201e-01
0.000000000000000000e+00,0.000000000000000000e+00,1.927635024484003201e-01
0.000000000000000000e+00,0.000000000000000000e+00,1.927635024484003201e-01
0.000000000000000000e+00,0.000000000000000000e+00,1.927635024484003201e-01
0.000000000000000000e+00,0.000000000000000000e+00,1.927635024484003201e-01
0.000000000000000000e+00,0.000000000000000000e+00,1.927635024484003201e-01
0.000000000000000000e+00,0.000000000000000000e+00,1.927635024484003201e-01
0.000000000000000000e+00,0.000000000000000000e+00,1.927635024484003201e-01
0.000000000000000000e+00,0.000000000000000000e+00,1.927635024484003201e-01
0.000000000000000000e+00,0.000000000000000000e+00,1.927635024484003201e-01
