3.074162336808792806e-01,-5.294548606070512142e-02,0.000000000000000000e+00
4.908100495731374524e-01,-3.686927840485532126e-01,0.000000000000000000e+00
5.627291930602974501e-01,-2.650882018962905651e-01,0.000000000000000000e+00
4.512545206551993870e-01,4.819232032602745880e-02,0.000000000000000000e+00
2.211132614962872667e-01,5.559264762261764692e-02,0.000000000000000000e+00
1.759873860449148036e-03,2.430676058029024311e-01,0.000000000000000000e+00
1.815577325783492568e-01,3.516057394862252550e-01,0.000000000000000000e+00
2.426890045424352493e-01,4.996122854180289896e-01,0.000000000000000000e+00
1.599819895322012464e-01,6.969543466604339876e-01,0.000000000000000000e+00
2.031334756244972672e-01,6.772201405361935045e-01,0.000000000000000000e+00
1.671739038809172406e-01,3.614728425483454965e-01,0.000000000000000000e+00
-6.296735527799489363e-02,4.572554456049739841e-02,0.000000000000000000e+00
-1.600581989856609266e-01,0.000000000000000000e+00,0.000000000000000000e+00
-1.780379848574509538e-01,0.000000000000000000e+00,0.000000000000000000e+00
-2.032096850779569475e-01,-3.814483146752475212e-02,0.000000000000000000e+00
-2.283813852984629411e-01,-2.827772840540449667e-02,0.000000000000000000e+00
-2.643409570420430232e-01,-2.334417687434437241e-02,0.000000000000000000e+00
-2.643409570420430232e-01,-4.801193452964499370e-02,0.000000000000000000e+00
-2.859167000881909781e-01,-4.801193452964499370e-02,0.000000000000000000e+00
-2.967045716112650111e-01,-4.801193452964499370e-02,0.000000000000000000e+00
-3.146843574830550661e-01,-5.294548606070512142e-02,0.000000000000000000e+00
-3.182803146574130770e-01,-7.761324371600575311e-02,0.000000000000000000e+00
-3.326641433548450655e-01,-6.281258912282537687e-02,0.000000000000000000e+00
-3.362601005292030765e-01,-8.748034677812600857e-02,0.000000000000000000e+00
-3.578358435753510314e-01,-8.748034677812600857e-02,0.000000000000000000e+00
-3.362601005292030765e-01,-7.761324371600575311e-02,0.000000000000000000e+00
-2.823207429138330227e-01,-7.761324371600575311e-02,0.000000000000000000e+00
-3.326641433548450655e-01,-1.072145529023665056e-01,0.000000000000000000e+00
-3.362601005292030765e-01,-8.748034677812600857e-02,0.000000000000000000e+00
-3.110884003086970551e-01,-1.170816559644867610e-01,0.000000000000000000e+00
-2.895126572625489891e-01,-1.072145529023665056e-01,0.000000000000000000e+00
-3.038964859599810331e-01,-1.466829651508475274e-01,0.000000000000000000e+00
-2.967045716112650111e-01,-1.664171712750880383e-01,0.000000000000000000e+00
-2.787247857394750117e-01,-1.516165166819076482e-01,0.000000000000000000e+00
-2.175935137753889637e-01,-1.466829651508475274e-01,0.000000000000000000e+00
-1.600581989856609266e-01,-1.664171712750880383e-01,0.000000000000000000e+00
-7.735118397542689594e-02,-1.960184804614487630e-01,0.000000000000000000e+00
-1.262395483698285949e-02,-2.206862381167494225e-01,0.000000000000000000e+00
3.052753125531316308e-02,-2.502875473031102027e-01,0.000000000000000000e+00
1.254774538352315325e-02,-2.502875473031102027e-01,0.000000000000000000e+00
2.693157408095516250e-02,-2.009520319925089116e-01,0.000000000000000000e+00
5.569923147581917061e-02,-1.960184804614487630e-01,0.000000000000000000e+00
9.525476039375720128e-02,-1.565500682129677967e-01,0.000000000000000000e+00
1.204264606142632227e-01,-1.170816559644867610e-01,0.000000000000000000e+00
1.276183749629792308e-01,-1.170816559644867610e-01,0.000000000000000000e+00
1.384062464860532360e-01,-5.787903759176525609e-02,0.000000000000000000e+00
1.384062464860532360e-01,-4.801193452964499370e-02,0.000000000000000000e+00
1.348102893116952250e-01,-3.321127993646462440e-02,0.000000000000000000e+00
1.132345462655472146e-01,-3.321127993646462440e-02,0.000000000000000000e+00
1.024466747424731955e-01,1.323580780956258628e-03,0.000000000000000000e+00
8.806284604504119318e-02,-3.609970750103867580e-03,0.000000000000000000e+00
8.087093169632518508e-02,-3.609970750103867580e-03,0.000000000000000000e+00
4.850731712710316945e-02,1.323580780956258628e-03,0.000000000000000000e+00
4.131540277838716829e-02,-3.609970750103867580e-03,0.000000000000000000e+00
3.052753125531316308e-02,0.000000000000000000e+00,0.000000000000000000e+00
4.131540277838716829e-02,2.105778690519676324e-02,0.000000000000000000e+00
1.973965973223915787e-02,1.323580780956258628e-03,0.000000000000000000e+00
1.254774538352315325e-02,1.612423537413663552e-02,0.000000000000000000e+00
8.951788209165152665e-03,2.105778690519676324e-02,0.000000000000000000e+00
1.614370255788115729e-02,0.000000000000000000e+00,0.000000000000000000e+00
0.000000000000000000e+00,3.092488996731701523e-02,0.000000000000000000e+00
-1.836083313908854061e-03,1.612423537413663552e-02,0.000000000000000000e+00
-1.836083313908854061e-03,2.105778690519676324e-02,0.000000000000000000e+00
0.000000000000000000e+00,1.612423537413663552e-02,0.000000000000000000e+00
-9.027997662624857172e-03,1.612423537413663552e-02,0.000000000000000000e+00
-9.027997662624857172e-03,2.105778690519676324e-02,0.000000000000000000e+00
2.333561690659716192e-02,8.026040527791827861e-02,0.000000000000000000e+00
1.132345462655472146e-01,-2.827772840540449667e-02,0.000000000000000000e+00
3.146081480295953026e-01,-3.292243718000721908e-01,0.000000000000000000e+00
5.411534500141493842e-01,-4.229618508902145968e-01,0.000000000000000000e+00
3.829313343423973448e-01,-1.096813286678965799e-01,0.000000000000000000e+00
4.512545206551993870e-01,2.035991935544214648e-01,0.000000000000000000e+00
2.211132614962872667e-01,2.677353634582030906e-01,0.000000000000000000e+00
1.671739038809172406e-01,4.009412547968265184e-01,1.927635024484003201e-01
0.000000000000000000e+00,0.000000000000000000e+00,1.927635024484003201e-01
0.000000000000000000e+00,0.000000000000000000e+00,1.927635024484003201e-01
0.000000000000000000e+00,0.000000000000000000e+00,1.927635024484003201e-01
0.000000000000000000e+00,0.000000000000000000e+00,1.927635024484003201e-01
0.000000000000000000e+00,0.000000000000000000e+00,1.927635024484003201e-01
0.000000000000000000e+00,0.000000000000000000e+00,1.927635024484003201e-01
0.000000000000000000e+00,0.000000000000000000e+00,1.927635024484003201e-01
0.000000000000000000e+00,0.000000000000000000e+00,1.927635024484003201e-01
0.000000000000000000e+00,0.000000000000000000e+00,1.927635024484003201e-01
0.000000000000000000e+00,0.000000000000000000e+00,1.927635024484003201e-01
0.000000000000000000e+00,0.000000000000000000e+00,1.927635024484003201e-01
0.000000000000000000e+00,0.000000000000000000e+00,1.927635024484003201e-01
0.000000000000000000e+00,0.000000000000000000e+00,1.927635024484003201e-01
0.000000000000000000e+00,0.000000000000000000e+00,1.927635024484003201e-01
0.000000000000000000e+00,0.000000000000000000e+00,1.927635024484003201e-01
0.000000000000000000e+00,0.000000000000000000e+00,1.927635024484003201e-01
0.000000000000000000e+00,0.000000000000000000e+00,1.927635024484003201e-01
0.000000000000000000e+00,0.000000000000000000e+00,1.927635024484003201e-01
0.000000000000000000e+00,0.000000000000000000e+00,1.927635024484003201e-01
0.000000000000000000e+00,0.000000000000000000e+00,1.927635024484003201e-01
0.000000000000000000e+00,0.000000000000000000e+00,1.927635024484003201e-01
0.000000000000000000e+00,0.000000000000000000e+00,1.927635024484003201e-01
0.000000000000000000e+00,0.000000000000000000e+00,1.927635024484003201e-01
0.000000000000000000e+00,0.000000000000000000e+00,1.927635024484003201e-01
0.000000000000000000e+00,0.000000000000000000e+00,1.927635024484003201e-01
0.000000000000000000e+00,0.000000000000000000e+00,1.927635024484003201e-01
0.000000000000000000e+00,0.000000000000000000e+00,1.927635024484003201e-01
0.000000000000000000e+00,0.000000000000000000e+00,1.927635024484003201e-01
0.000000000000000000e+00,0.000000000000000000e+00,1.927635024484003201e-01
0.000000000000000000e+00,0.000000000000000000e+00,1.927635024484003201e-01
0.000000000000000000e+00,0.000000000000000000e+00,1.927635024484003201e-01
0.000000000000000000e+00,0.000000000000000000e+00,1.927635024484003201e-01
0.000000000000000000e+00,0.000000000000000000e+00,1.927635024484003201e-01
0.000000000000000000e+00,0.000000000000000000e+00,1.927635024484003201e-01
0.000000000000000000e+00,0.000000000000000000e+00,1.927635024484003201e-01
0.000000000000000000e+00,0.000000000000000000e+00,1.927635024484003201e-01
0.000000000000000000e+00,0.000000000000000000e+00,1.927635024484003201e-01
0.000000000000000000e+00,0.000000000000000000e+00,1.927635024484003201e-01
0.000000000000000000e+00,0.000000000000000000e+00,1.927635024484003201e-01
0.000000000000000000e+00,0.000000000000000000e+00,1.927635024484003201e-01
0.000000000000000000e+00,0.000000000000000000e+00,1.927635024484003201e-01
0.000000000000000000e+00,0.000000000000000000e+00,1.927635024484003201e-01
0.000000000000000000e+00,0.000000000000000000e+00,1.927635024484003201e-01
0.000000000000000000e+00,0.000000000000000000e+00,1.927635024484003201e-01
0.000000000000000000e+00,0.000000000000000000e+00,1.927635024484003201e-01
0.000000000000000000e+00,0.000000000000000000e+00,1.927635024484003201e-01
0.000000000000000000e+00,0.000000000000000000e+00,1.927635024484003201e-01
0.000000000000000000e+00,0.000000000000000000e+00,1.927635024484003201e-01
0.000000000000000000e+00,0.000000000000000000e+00,1.927635024484003201e-01
0.000000000000000000e+00,0.000000000000000000e+00,1.927635024484003201e-01
0.000000000000000000e+00,0.000000000000000000e+00,1.927635024484003201e-01
0.000000000000000000e+00,0.000000000000000000e+00,1.927635024484003201e-01
0.000000000000000000e+00,0.000000000000000000e+00,1.927635024484003201e-01
0.000000000000000000e+00,0.000000000000000000e+00,1.927635024484003201e-01
0.000000000000000000e+00,0.000000000000000000e+00,1.927635024484003201e-01
0.000000000000000000e+00,0.000000000000000000e+00,1.927635024484003201e-01
0.000000000000000000e+00,0.000000000000000000e+00,1.927635024484003201e-01
0.000000000000000000e+00,0.000000000000000000e+00,1.927635024484003201e-01
0.000000000000000000e+00,0.000000000000000000e+00,1.927635024484003201e-01
0.000000000000000000e+00,0.000000000000000000e+00,1.927635024484003201e-01
0.000000000000000000e+00,0.000000000000000000e+00,1.927635024484003201e-01
0.000000000000000000e+00,0.000000000000000000e+00,1.927635024484003201e-01
0.000000000000000000e+00,0.000000000000000000e+00,1.927635024484003201e-01
0.000000000000000000e+00,0.000000000000000000e+00,1.927635024484003201e-01
0.000000000000000000e+00,0.000000000000000000e+00,1.927635024484003201e-01
0.000000000000000000e+00,0.000000000000000000e+00,1.927635024484003201e-01
0.000000000000000000e+00,0.000000000000000000e+00,1.927635024484003201e-01
0.000000000000000000e+00,0.000000000000000000e+00,1.927635024484003201e-01
0.000000000000000000e+00,0.000000000000000000e+00,1.927635024484003201e-01
0.000000000000000000e+00,0.000000000000000000e+00,1.927635024484003201e-01
0.000000000000000000e+00,0.000000000000000000e+00,1.927635024484003201e-01
0.000000000000000000e+00,0.000000000000000000e+00,1.927635024484003201e-01
0.000000000000000000e+00,0.000000000000000000e+00,1.927635024484003201e-01
0.000000000000000000e+00,0.000000000000000000e+00,1.927635024484003201e-01
0.000000000000000000e+00,0.000000000000000000e+00,1.927635024484003201e-01
0.000000000000000000e+00,0.000000000000000000e+00,1.927635024484003201e-01
0.000000000000000000e+00,0.000000000000000000e+00,1.927635024484003201e-01
0.000000000000000000e+00,0.000000000000000000e+00,1.927635024484003201e-01
