9.525476039375720128e-02,1.612423537413663552e-02,0.000000000000000000e+00
2.786485762860153037e-01,-2.157526865856893017e-01,0.000000000000000000e+00
4.872140923987794414e-01,-5.018986753871765849e-01,0.000000000000000000e+00
5.375574928397913732e-01,-2.749553049584108066e-01,0.000000000000000000e+00
3.361838910757433130e-01,3.832521726390720335e-02,0.000000000000000000e+00
1.060426319168311926e-01,4.079199302943727068e-02,0.000000000000000000e+00
-1.240986272420809000e-01,2.924031211135036945e-01,0.000000000000000000e+00
2.333561690659716192e-02,4.157419093900068252e-01,0.000000000000000000e+00
1.060426319168311926e-01,5.686820068528707361e-01,0.000000000000000000e+00
1.254774538352315325e-02,8.350937895301174807e-01,0.000000000000000000e+00
7.367901734760917698e-02,8.301602379990573599e-01,0.000000000000000000e+00
1.759873860449148036e-03,5.144129400112094075e-01,0.000000000000000000e+00
5.210327430146116656e-02,1.986656420233613163e-01,0.000000000000000000e+00
-5.937139810363688264e-02,1.323580780956258628e-03,0.000000000000000000e+00
-5.217948375492088148e-02,-2.827772840540449667e-02,0.000000000000000000e+00
-8.094714114978489305e-02,-8.543522281163994439e-03,0.000000000000000000e+00
-8.813905549850090115e-02,-2.827772840540449667e-02,0.000000000000000000e+00
-1.061188413702909145e-01,-4.307838299858487291e-02,0.000000000000000000e+00
-1.205026700677229168e-01,-3.321127993646462440e-02,0.000000000000000000e+00
-1.312905415907969220e-01,-4.801193452964499370e-02,0.000000000000000000e+00
-1.564622418113029434e-01,-3.814483146752475212e-02,0.000000000000000000e+00
-1.564622418113029434e-01,-4.307838299858487291e-02,0.000000000000000000e+00
-1.708460705087349318e-01,-5.787903759176525609e-02,0.000000000000000000e+00
-1.600581989856609266e-01,-6.774614065388549766e-02,0.000000000000000000e+00
-2.211894709497469746e-01,-5.787903759176525609e-02,0.000000000000000000e+00
-2.283813852984629411e-01,-7.761324371600575311e-02,0.000000000000000000e+00
-2.211894709497469746e-01,-1.022810013713063848e-01,0.000000000000000000e+00
-2.463611711702529683e-01,-1.072145529023665056e-01,0.000000000000000000e+00
-2.535530855189689903e-01,-1.072145529023665056e-01,0.000000000000000000e+00
-2.751288285651170562e-01,-1.368158620887272581e-01,0.000000000000000000e+00
-2.607449998676850123e-01,-1.466829651508475274e-01,0.000000000000000000e+00
-2.823207429138330227e-01,-1.713507228061481591e-01,0.000000000000000000e+00
-2.607449998676850123e-01,-1.861513773993285215e-01,0.000000000000000000e+00
-2.463611711702529683e-01,-2.009520319925089116e-01,0.000000000000000000e+00
-2.139975566010309804e-01,-2.206862381167494225e-01,0.000000000000000000e+00
-1.852298992061669480e-01,-2.404204442409899056e-01,0.000000000000000000e+00
-1.636541561600189376e-01,-2.305533411788696641e-01,0.000000000000000000e+00
-9.892692702157489248e-02,-2.256197896478095433e-01,0.000000000000000000e+00
-1.262395483698285949e-02,-2.256197896478095433e-01,0.000000000000000000e+00
-5.217948375492088148e-02,-1.664171712750880383e-01,0.000000000000000000e+00
6.648710299889318276e-02,-1.565500682129677967e-01,0.000000000000000000e+00
4.491135995274516540e-02,-1.318823105576671373e-01,0.000000000000000000e+00
9.525476039375720128e-02,-9.241389830918614323e-02,0.000000000000000000e+00
1.060426319168311926e-01,-8.254679524706588778e-02,0.000000000000000000e+00
1.060426319168311926e-01,-4.801193452964499370e-02,0.000000000000000000e+00
1.240224177886212337e-01,-1.841062534328424469e-02,0.000000000000000000e+00
1.348102893116952250e-01,-8.543522281163994439e-03,0.000000000000000000e+00
1.240224177886212337e-01,1.119068384307650953e-02,0.000000000000000000e+00
1.060426319168311926e-01,2.599133843625689097e-02,0.000000000000000000e+00
1.060426319168311926e-01,2.105778690519676324e-02,0.000000000000000000e+00
9.885071756811519839e-02,2.599133843625689097e-02,0.000000000000000000e+00
9.525476039375720128e-02,3.585844149837714295e-02,0.000000000000000000e+00
6.289114582453517177e-02,3.092488996731701523e-02,0.000000000000000000e+00
8.087093169632518508e-02,4.572554456049739841e-02,0.000000000000000000e+00
6.648710299889318276e-02,3.585844149837714295e-02,0.000000000000000000e+00
5.929518865017718160e-02,3.585844149837714295e-02,0.000000000000000000e+00
5.210327430146116656e-02,3.585844149837714295e-02,0.000000000000000000e+00
7.367901734760917698e-02,5.559264762261764692e-02,0.000000000000000000e+00
6.289114582453517177e-02,4.572554456049739841e-02,0.000000000000000000e+00
5.569923147581917061e-02,3.092488996731701523e-02,0.000000000000000000e+00
4.491135995274516540e-02,4.079199302943727068e-02,0.000000000000000000e+00
5.569923147581917061e-02,3.585844149837714295e-02,0.000000000000000000e+00
4.491135995274516540e-02,3.092488996731701523e-02,0.000000000000000000e+00
4.131540277838716829e-02,4.572554456049739841e-02,0.000000000000000000e+00
4.131540277838716829e-02,3.092488996731701523e-02,0.000000000000000000e+00
2.693157408095516250e-02,3.092488996731701523e-02,0.000000000000000000e+00
3.052753125531316308e-02,2.599133843625689097e-02,0.000000000000000000e+00
-1.621991201134086180e-02,2.599133843625689097e-02,0.000000000000000000e+00
6.289114582453517177e-02,2.599133843625689097e-02,0.000000000000000000e+00
-1.836083313908854061e-03,2.599133843625689097e-02,0.000000000000000000e+00
-1.836083313908854061e-03,1.612423537413663552e-02,0.000000000000000000e+00
-1.981586918569886238e-02,1.119068384307650953e-02,0.000000000000000000e+00
-5.432040488266855725e-03,4.079199302943727068e-02,0.000000000000000000e+00
1.254774538352315325e-02,5.559264762261764692e-02,0.000000000000000000e+00
4.491135995274516540e-02,6.052619915367778158e-02,0.000000000000000000e+00
3.412348842967116713e-02,9.999461140215877564e-02,0.000000000000000000e+00
5.210327430146116656e-02,8.026040527791827861e-02,0.000000000000000000e+00
5.210327430146116656e-02,4.572554456049739841e-02,0.000000000000000000e+00
4.131540277838716829e-02,1.612423537413663552e-02,0.000000000000000000e+00
-1.836083313908854061e-03,-3.609970750103867580e-03,0.000000000000000000e+00
-3.779565505748887222e-02,-2.334417687434437241e-02,0.000000000000000000e+00
-2.341182636005686643e-02,-8.543522281163994439e-03,0.000000000000000000e+00
-5.577544092927888553e-02,-3.609970750103867580e-03,0.000000000000000000e+00
-6.656331245235289074e-02,-3.321127993646462440e-02,0.000000000000000000e+00
-9.173501267285891214e-02,-2.827772840540449667e-02,0.000000000000000000e+00
-4.498756940620488032e-02,-2.334417687434437241e-02,0.000000000000000000e+00
-6.656331245235289074e-02,-3.609970750103867580e-03,0.000000000000000000e+00
-8.094714114978489305e-02,1.119068384307650953e-02,0.000000000000000000e+00
-7.375522680106889883e-02,1.323580780956258628e-03,0.000000000000000000e+00
-7.015926962671088785e-02,-3.609970750103867580e-03,0.000000000000000000e+00
-7.735118397542689594e-02,0.000000000000000000e+00,0.000000000000000000e+00
-8.094714114978489305e-02,-3.609970750103867580e-03,0.000000000000000000e+00
-6.656331245235289074e-02,1.323580780956258628e-03,0.000000000000000000e+00
-6.296735527799489363e-02,2.105778690519676324e-02,0.000000000000000000e+00
-6.296735527799489363e-02,1.323580780956258628e-03,0.000000000000000000e+00
-7.735118397542689594e-02,1.323580780956258628e-03,0.000000000000000000e+00
-7.015926962671088785e-02,7.532685374685815782e-02,1.927635024484003201e-01
0.000000000000000000e+00,0.000000000000000000e+00,1.927635024484003201e-01
0.000000000000000000e+00,0.000000000000000000e+00,1.927635024484003201e-01
0.000000000000000000e+00,0.000000000000000000e+00,1.927635024484003201e-01
0.000000000000000000e+00,0.000000000000000000e+00,1.927635024484003201e-01
0.000000000000000000e+00,0.000000000000000000e+00,1.927635024484003201e-01
0.000000000000000000e+00,0.000000000000000000e+00,1.927635024484003201e-01
0.000000000000000000e+00,0.000000000000000000e+00,1.927635024484003201e-01
0.000000000000000000e+00,0.000000000000000000e+00,1.927635024484003201e-01
0.000000000000000000e+00,0.000000000000000000e+00,1.927635024484003201e-01
0.000000000000000000e+00,0.000000000000000000e+00,1.927635024484003201e-01
0.000000000000000000e+00,0.000000000000000000e+00,1.927635024484003201e-01
0.000000000000000000e+00,0.000000000000000000e+00,1.927635024484003201e-01
0.000000000000000000e+00,0.000000000000000000e+00,1.927635024484003201e-01
0.000000000000000000e+00,0.000000000000000000e+00,1.927635024484003201e-01
0.000000000000000000e+00,0.000000000000000000e+00,1.927635024484003201e-01
0.000000000000000000e+00,0.000000000000000000e+00,1.927635024484003201e-01
0.000000000000000000e+00,0.000000000000000000e+00,1.927635024484003201e-01
0.000000000000000000e+00,0.000000000000000000e+00,1.927635024484003201e-01
0.000000000000000000e+00,0.000000000000000000e+00,1.927635024484003201e-01
0.000000000000000000e+00,0.000000000000000000e+00,1.927635024484003201e-01
0.000000000000000000e+00,0.000000000000000000e+00,1.927635024484003201e-01
0.000000000000000000e+00,0.000000000000000000e+00,1.927635024484003201e-01
0.000000000000000000e+00,0.000000000000000000e+00,1.927635024484003201e-01
0.000000000000000000e+00,0.000000000000000000e+00,1.927635024484003201e-01
0.000000000000000000e+00,0.000000000000000000e+00,1.927635024484003201e-01
0.000000000000000000e+00,0.000000000000000000e+00,1.927635024484003201e-01
0.000000000000000000e+00,0.000000000000000000e+00,1.927635024484003201e-01
0.000000000000000000e+00,0.000000000000000000e+00,1.927635024484003201e-01
0.000000000000000000e+00,0.000000000000000000e+00,1.927635024484003201e-01
0.000000000000000000e+00,0.000000000000000000e+00,1.927635024484003201e-01
0.000000000000000000e+00,0.000000000000000000e+00,1.927635024484003201e-01
0.000000000000000000e+00,0.000000000000000000e+00,1.927635024484003201e-01
0.000000000000000000e+00,0.000000000000000000e+00,1.927635024484003201e-01
0.000000000000000000e+00,0.000000000000000000e+00,1.927635024484003201e-01
0.000000000000000000e+00,0.000000000000000000e+00,1.927635024484003201e-01
0.000000000000000000e+00,0.000000000000000000e+00,1.927635024484003201e-01
0.000000000000000000e+00,0.000000000000000000e+00,1.927635024484003201e-01
0.000000000000000000e+00,0.000000000000000000e+00,1.927635024484003201e-01
0.000000000000000000e+00,0.000000000000000000e+00,1.927635024484003201e-01
0.000000000000000000e+00,0.000000000000000000e+00,1.927635024484003201e-01
0.000000000000000000e+00,0.000000000000000000e+00,1.927635024484003201e-01
0.000000000000000000e+00,0.000000000000000000e+00,1.927635024484003201e-01
0.000000000000000000e+00,0.000000000000000000e+00,1.927635024484003201e-01
0.000000000000000000e+00,0.000000000000000000e+00,1.927635024484003201e-01
0.000000000000000000e+00,0.000000000000000000e+00,1.927635024484003201e-01
0.000000000000000000e+00,0.000000000000000000e+00,1.927635024484003201e-01
0.000000000000000000e+00,0.000000000000000000e+00,1.927635024484003201e-01
0.000000000000000000e+00,0.000000000000000000e+00,1.927635024484003201e-01
0.000000000000000000e+00,0.000000000000000000e+00,1.927635024484003201e-01
0.000000000000000000e+00,0.000000000000000000e+00,1.927635024484003201e-01
0.000000000000000000e+00,0.000000000000000000e+00,1.927635024484003201e-01
0.000000000000000000e+00,0.000000000000000000e+00,1.927635024484003201e-01
0.000000000000000000e+00,0.000000000000000000e+00,1.927635024484003201e-01
0.000000000000000000e+00,0.000000000000000000e+00,1.927635024484003201e-01
0.000000000000000000e+00,0.000000000000000000e+00,1.927635024484003201e-01
