-9.027997662624857172e-03,5.559264762261764692e-02,0.000000000000000000e+00
3.052753125531316308e-02,-6.774614065388549766e-02,0.000000000000000000e+00
2.319011330193612441e-01,-3.834934386417335750e-01,0.000000000000000000e+00
4.548504778295573425e-01,-6.252374636636797156e-01,0.000000000000000000e+00
2.247092186706452777e-01,-3.119569414413617681e-01,0.000000000000000000e+00
1.743658182296332626e-01,1.323580780956258628e-03,0.000000000000000000e+00
-5.577544092927888553e-02,1.641307813059404153e-01,0.000000000000000000e+00
-1.205026700677229168e-01,3.170708787688043540e-01,0.000000000000000000e+00
8.951788209165152665e-03,4.650774247006080886e-01,0.000000000000000000e+00
4.131540277838716829e-02,7.413563104399750747e-01,0.000000000000000000e+00
5.210327430146116656e-02,8.202931349369371183e-01,0.000000000000000000e+00
-2.341182636005686643e-02,5.686820068528707361e-01,0.000000000000000000e+00
-9.027997662624857172e-03,2.529347088650226727e-01,0.000000000000000000e+00
-8.094714114978489305e-02,-2.334417687434437241e-02,0.000000000000000000e+00
-1.456743702882289104e-01,-1.841062534328424469e-02,0.000000000000000000e+00
-1.636541561600189376e-01,-3.321127993646462440e-02,0.000000000000000000e+00
-1.420784131138708994e-01,-6.774614065388549766e-02,0.000000000000000000e+00
-1.852298992061669480e-01,-2.827772840540449667e-02,0.000000000000000000e+00
-1.924218135548829423e-01,-5.787903759176525609e-02,0.000000000000000000e+00
-1.888258563805249590e-01,-7.267969218494563233e-02,0.000000000000000000e+00
-2.032096850779569475e-01,-6.281258912282537687e-02,0.000000000000000000e+00
-1.924218135548829423e-01,-5.294548606070512142e-02,0.000000000000000000e+00
-2.319773424728210076e-01,-7.267969218494563233e-02,0.000000000000000000e+00
-2.104015994266729694e-01,-6.774614065388549766e-02,0.000000000000000000e+00
-2.391692568215370018e-01,-5.787903759176525609e-02,0.000000000000000000e+00
-2.499571283446109793e-01,-8.748034677812600857e-02,0.000000000000000000e+00
-2.499571283446109793e-01,-8.254679524706588778e-02,0.000000000000000000e+00
-2.751288285651170562e-01,-8.254679524706588778e-02,0.000000000000000000e+00
-2.931086144369070001e-01,-9.734744984024626402e-02,0.000000000000000000e+00
-3.110884003086970551e-01,-1.170816559644867610e-01,0.000000000000000000e+00
-3.362601005292030765e-01,-1.220152074955468957e-01,0.000000000000000000e+00
-3.362601005292030765e-01,-1.516165166819076482e-01,0.000000000000000000e+00
-3.362601005292030765e-01,-1.466829651508475274e-01,0.000000000000000000e+00
-3.794115866214990973e-01,-1.910849289303886422e-01,0.000000000000000000e+00
-3.866035009702150638e-01,-1.516165166819076482e-01,0.000000000000000000e+00
-3.506439292266350649e-01,-2.404204442409899056e-01,0.000000000000000000e+00
-3.290681861804870545e-01,-2.108191350546291531e-01,0.000000000000000000e+00
-3.110884003086970551e-01,-2.749553049584108066e-01,0.000000000000000000e+00
-2.607449998676850123e-01,-2.305533411788696641e-01,0.000000000000000000e+00
-1.960177707292409255e-01,-2.404204442409899056e-01,0.000000000000000000e+00
-1.456743702882289104e-01,-2.305533411788696641e-01,0.000000000000000000e+00
-1.097147985446489116e-01,-2.206862381167494225e-01,0.000000000000000000e+00
-3.060374070877287106e-02,-1.762842743372082799e-01,0.000000000000000000e+00
3.052753125531316308e-02,-1.565500682129677967e-01,0.000000000000000000e+00
4.850731712710316945e-02,-1.417494136197874066e-01,0.000000000000000000e+00
8.806284604504119318e-02,-1.022810013713063848e-01,0.000000000000000000e+00
9.165880321939919029e-02,-8.254679524706588778e-02,0.000000000000000000e+00
1.204264606142632227e-01,-6.281258912282537687e-02,0.000000000000000000e+00
1.168305034399052117e-01,-5.294548606070512142e-02,0.000000000000000000e+00
9.885071756811519839e-02,-2.827772840540449667e-02,0.000000000000000000e+00
1.060426319168311926e-01,-3.321127993646462440e-02,0.000000000000000000e+00
1.276183749629792308e-01,0.000000000000000000e+00,0.000000000000000000e+00
9.165880321939919029e-02,-3.814483146752475212e-02,0.000000000000000000e+00
6.289114582453517177e-02,2.599133843625689097e-02,0.000000000000000000e+00
9.165880321939919029e-02,-2.334417687434437241e-02,0.000000000000000000e+00
1.276183749629792308e-01,-8.543522281163994439e-03,0.000000000000000000e+00
9.525476039375720128e-02,0.000000000000000000e+00,0.000000000000000000e+00
9.885071756811519839e-02,1.323580780956258628e-03,0.000000000000000000e+00
1.024466747424731955e-01,-3.609970750103867580e-03,0.000000000000000000e+00
9.885071756811519839e-02,1.119068384307650953e-02,0.000000000000000000e+00
1.168305034399052117e-01,2.599133843625689097e-02,0.000000000000000000e+00
1.276183749629792308e-01,1.323580780956258628e-03,0.000000000000000000e+00
1.024466747424731955e-01,1.119068384307650953e-02,0.000000000000000000e+00
1.024466747424731955e-01,1.119068384307650953e-02,0.000000000000000000e+00
1.276183749629792308e-01,2.105778690519676324e-02,0.000000000000000000e+00
9.885071756811519839e-02,-1.841062534328424469e-02,0.000000000000000000e+00
9.885071756811519839e-02,3.585844149837714295e-02,0.000000000000000000e+00
8.087093169632518508e-02,-3.609970750103867580e-03,0.000000000000000000e+00
9.525476039375720128e-02,1.612423537413663552e-02,0.000000000000000000e+00
7.727497452196718797e-02,1.323580780956258628e-03,0.000000000000000000e+00
6.648710299889318276e-02,-1.347707381222412043e-02,0.000000000000000000e+00
5.929518865017718160e-02,1.323580780956258628e-03,0.000000000000000000e+00
5.929518865017718160e-02,1.323580780956258628e-03,0.000000000000000000e+00
4.491135995274516540e-02,1.323580780956258628e-03,0.000000000000000000e+00
4.850731712710316945e-02,-1.347707381222412043e-02,0.000000000000000000e+00
7.367901734760917698e-02,-3.609970750103867580e-03,0.000000000000000000e+00
5.569923147581917061e-02,1.323580780956258628e-03,0.000000000000000000e+00
4.850731712710316945e-02,-1.347707381222412043e-02,0.000000000000000000e+00
6.289114582453517177e-02,0.000000000000000000e+00,0.000000000000000000e+00
7.008306017325117987e-02,2.105778690519676324e-02,0.000000000000000000e+00
8.806284604504119318e-02,2.599133843625689097e-02,0.000000000000000000e+00
1.060426319168311926e-01,6.545975068473790237e-02,0.000000000000000000e+00
1.276183749629792308e-01,6.545975068473790237e-02,0.000000000000000000e+00
1.348102893116952250e-01,6.052619915367778158e-02,0.000000000000000000e+00
9.885071756811519839e-02,4.079199302943727068e-02,0.000000000000000000e+00
7.727497452196718797e-02,-8.543522281163994439e-03,0.000000000000000000e+00
8.087093169632518508e-02,-1.841062534328424469e-02,0.000000000000000000e+00
4.850731712710316945e-02,-2.334417687434437241e-02,0.000000000000000000e+00
3.052753125531316308e-02,-1.347707381222412043e-02,0.000000000000000000e+00
1.254774538352315325e-02,-2.827772840540449667e-02,0.000000000000000000e+00
1.614370255788115729e-02,-3.609970750103867580e-03,0.000000000000000000e+00
1.973965973223915787e-02,-6.774614065388549766e-02,0.000000000000000000e+00
-9.027997662624857172e-03,1.612423537413663552e-02,0.000000000000000000e+00
2.333561690659716192e-02,0.000000000000000000e+00,0.000000000000000000e+00
-1.836083313908854061e-03,-2.334417687434437241e-02,0.000000000000000000e+00
-1.836083313908854061e-03,-2.827772840540449667e-02,0.000000000000000000e+00
-1.836083313908854061e-03,1.119068384307650953e-02,0.000000000000000000e+00
-1.262395483698285949e-02,-8.543522281163994439e-03,0.000000000000000000e+00
0.000000000000000000e+00,-8.543522281163994439e-03,0.000000000000000000e+00
-1.262395483698285949e-02,1.119068384307650953e-02,0.000000000000000000e+00
-2.341182636005686643e-02,-3.609970750103867580e-03,0.000000000000000000e+00
-1.836083313908854061e-03,-1.841062534328424469e-02,0.000000000000000000e+00
1.254774538352315325e-02,1.323580780956258628e-03,0.000000000000000000e+00
-5.432040488266855725e-03,8.519395680897841328e-02,0.000000000000000000e+00
6.648710299889318276e-02,1.612423537413663552e-02,1.927635024484003201e-01
0.000000000000000000e+00,0.000000000000000000e+00,1.927635024484003201e-01
0.000000000000000000e+00,0.000000000000000000e+00,1.927635024484003201e-01
0.000000000000000000e+00,0.000000000000000000e+00,1.927635024484003201e-01
0.000000000000000000e+00,0.000000000000000000e+00,1.927635024484003201e-01
0.000000000000000000e+00,0.000000000000000000e+00,1.927635024484003201e-01
0.000000000000000000e+00,0.000000000000000000e+00,1.927635024484003201e-01
0.000000000000000000e+00,0.000000000000000000e+00,1.927635024484003201e-01
0.000000000000000000e+00,0.000000000000000000e+00,1.927635024484003201e-01
0.000000000000000000e+00,0.000000000000000000e+00,1.927635024484003201e-01
0.000000000000000000e+00,0.000000000000000000e+00,1.927635024484003201e-01
0.000000000000000000e+00,0.000000000000000000e+00,1.927635024484003201e-01
0.000000000000000000e+00,0.000000000000000000e+00,1.927635024484003201e-01
0.000000000000000000e+00,0.000000000000000000e+00,1.927635024484003201e-01
0.000000000000000000e+00,0.000000000000000000e+00,1.927635024484003201e-01
0.000000000000000000e+00,0.000000000000000000e+00,1.927635024484003201e-01
0.000000000000000000e+00,0.000000000000000000e+00,1.927635024484003201e-01
0.000000000000000000e+00,0.000000000000000000e+00,1.927635024484003201e-01
0.000000000000000000e+00,0.000000000000000000e+00,1.927635024484003201e-01
0.000000000000000000e+00,0.000000000000000000e+00,1.927635024484003201e-01
0.000000000000000000e+00,0.000000000000000000e+00,1.927635024484003201e-01
0.000000000000000000e+00,0.000000000000000000e+00,1.927635024484003201e-01
0.000000000000000000e+00,0.000000000000000000e+00,1.927635024484003201e-01
0.000000000000000000e+00,0.000000000000000000e+00,1.927635024484003201e-01
0.000000000000000000e+00,0.000000000000000000e+00,1.927635024484003201e-01
0.000000000000000000e+00,0.000000000000000000e+00,1.927635024484003201e-01
0.000000000000000000e+00,0.000000000000000000e+00,1.927635024484003201e-01
0.000000000000000000e+00,0.000000000000000000e+00,1.927635024484003201e-01
0.000000000000000000e+00,0.000000000000000000e+00,1.927635024484003201e-01
0.000000000000000000e+00,0.000000000000000000e+00,1.927635024484003201e-01
0.000000000000000000e+00,0.000000000000000000e+00,1.927635024484003201e-01
0.000000000000000000e+00,0.000000000000000000e+00,1.927635024484003201e-01
0.000000000000000000e+00,0.000000000000000000e+00,1.927635024484003201e-01
0.000000000000000000e+00,0.000000000000000000e+00,1.927635024484003201e-01
0.000000000000000000e+00,0.000000000000000000e+00,1.927635024484003201e-01
0.000000000000000000e+00,0.000000000000000000e+00,1.927635024484003201e-01
0.000000000000000000e+00,0.000000000000000000e+00,1.927635024484003201e-01
0.000000000000000000e+00,0.000000000000000000e+00,1.927635024484003201e-01
0.000000000000000000e+00,0.000000000000000000e+00,1.927635024484003201e-01
0.000000000000000000e+00,0.000000000000000000e+00,1.927635024484003201e-01
0.000000000000000000e+00,0.000000000000000000e+00,1.927635024484003201e-01
0.000000000000000000e+00,0.000000000000000000e+00,1.927635024484003201e-01
0.000000000000000000e+00,0.000000000000000000e+00,1.927635024484003201e-01
0.000000000000000000e+00,0.000000000000000000e+00,1.927635024484003201e-01
0.000000000000000000e+00,0.000000000000000000e+00,1.927635024484003201e-01
0.000000000000000000e+00,0.000000000000000000e+00,1.927635024484003201e-01
0.000000000000000000e+00,0.000000000000000000e+00,1.927635024484003201e-01
0.000000000000000000e+00,0.000000000000000000e+00,1.927635024484003201e-01
