-1.262395483698285949e-02,1.612423537413663552e-02,0.000000000000000000e+00
1.599819895322012464e-01,-1.565500682129677967e-01,0.000000000000000000e+00
3.757394199936813228e-01,-4.722973662008159157e-01,0.000000000000000000e+00
4.980019639218534189e-01,-3.736263355796133334e-01,0.000000000000000000e+00
2.714566619372992817e-01,-6.034581335729531648e-02,0.000000000000000000e+00
4.131540277838716829e-02,1.612423537413663552e-02,0.000000000000000000e+00
-1.888258563805249590e-01,3.022702241756239916e-01,0.000000000000000000e+00
-1.420784131138708994e-01,4.502767701074277262e-01,0.000000000000000000e+00
-3.779565505748887222e-02,6.081504191013518135e-01,0.000000000000000000e+00
-8.094714114978489305e-02,8.745622017785984470e-01,0.000000000000000000e+00
-7.375522680106889883e-02,9.140306140270796353e-01,0.000000000000000000e+00
-7.735118397542689594e-02,5.982833160392315719e-01,0.000000000000000000e+00
-3.779565505748887222e-02,2.825360180513834529e-01,0.000000000000000000e+00
-1.133107557190069226e-01,-1.347707381222412043e-02,0.000000000000000000e+00
-1.492703274625869214e-01,-4.801193452964499370e-02,0.000000000000000000e+00
-1.744420276830929428e-01,-5.294548606070512142e-02,0.000000000000000000e+00
-1.672501133343769208e-01,-5.787903759176525609e-02,0.000000000000000000e+00
-1.780379848574509538e-01,-8.748034677812600857e-02,0.000000000000000000e+00
-1.888258563805249590e-01,-8.254679524706588778e-02,0.000000000000000000e+00
-1.996137279035989365e-01,-5.787903759176525609e-02,0.000000000000000000e+00
-1.924218135548829423e-01,-8.748034677812600857e-02,0.000000000000000000e+00
-1.924218135548829423e-01,-8.748034677812600857e-02,0.000000000000000000e+00
-2.355732996471789908e-01,-8.748034677812600857e-02,0.000000000000000000e+00
-2.355732996471789908e-01,-1.170816559644867610e-01,0.000000000000000000e+00
-2.679369142164010342e-01,-1.022810013713063848e-01,0.000000000000000000e+00
-2.571490426933270013e-01,-1.121481044334266264e-01,0.000000000000000000e+00
-2.895126572625489891e-01,-1.466829651508475274e-01,0.000000000000000000e+00
-2.895126572625489891e-01,-1.565500682129677967e-01,0.000000000000000000e+00
-3.038964859599810331e-01,-1.762842743372082799e-01,0.000000000000000000e+00
-3.110884003086970551e-01,-1.960184804614487630e-01,0.000000000000000000e+00
-3.218762718317710325e-01,-2.256197896478095433e-01,0.000000000000000000e+00
-3.182803146574130770e-01,-2.157526865856893017e-01,0.000000000000000000e+00
-3.146843574830550661e-01,-2.650882018962905651e-01,0.000000000000000000e+00
-2.715328713907590452e-01,-2.749553049584108066e-01,0.000000000000000000e+00
-2.571490426933270013e-01,-2.749553049584108066e-01,0.000000000000000000e+00
-1.996137279035989365e-01,-3.045566141447715869e-01,0.000000000000000000e+00
-1.600581989856609266e-01,-2.996230626137114106e-01,0.000000000000000000e+00
-1.205026700677229168e-01,-2.848224080205310482e-01,0.000000000000000000e+00
-1.981586918569886238e-02,-2.601546503652304443e-01,0.000000000000000000e+00
-3.419969788313087511e-02,-2.552210988341702680e-01,0.000000000000000000e+00
3.052753125531316308e-02,-1.960184804614487630e-01,0.000000000000000000e+00
3.052753125531316308e-02,-1.861513773993285215e-01,0.000000000000000000e+00
8.806284604504119318e-02,-1.368158620887272581e-01,0.000000000000000000e+00
8.087093169632518508e-02,-1.022810013713063848e-01,0.000000000000000000e+00
9.525476039375720128e-02,-9.241389830918614323e-02,0.000000000000000000e+00
1.204264606142632227e-01,-6.774614065388549766e-02,0.000000000000000000e+00
1.132345462655472146e-01,-1.841062534328424469e-02,0.000000000000000000e+00
1.132345462655472146e-01,-4.307838299858487291e-02,0.000000000000000000e+00
9.525476039375720128e-02,-8.543522281163994439e-03,0.000000000000000000e+00
8.806284604504119318e-02,-3.609970750103867580e-03,0.000000000000000000e+00
9.165880321939919029e-02,-3.609970750103867580e-03,0.000000000000000000e+00
7.367901734760917698e-02,1.119068384307650953e-02,0.000000000000000000e+00
5.569923147581917061e-02,2.599133843625689097e-02,0.000000000000000000e+00
9.525476039375720128e-02,1.612423537413663552e-02,0.000000000000000000e+00
4.491135995274516540e-02,1.612423537413663552e-02,0.000000000000000000e+00
7.727497452196718797e-02,2.599133843625689097e-02,0.000000000000000000e+00
3.412348842967116713e-02,1.323580780956258628e-03,0.000000000000000000e+00
5.929518865017718160e-02,1.612423537413663552e-02,0.000000000000000000e+00
4.850731712710316945e-02,2.105778690519676324e-02,0.000000000000000000e+00
6.648710299889318276e-02,2.105778690519676324e-02,0.000000000000000000e+00
5.210327430146116656e-02,1.119068384307650953e-02,0.000000000000000000e+00
3.771944560402916424e-02,4.079199302943727068e-02,0.000000000000000000e+00
4.850731712710316945e-02,1.612423537413663552e-02,0.000000000000000000e+00
3.052753125531316308e-02,1.612423537413663552e-02,0.000000000000000000e+00
5.929518865017718160e-02,3.092488996731701523e-02,0.000000000000000000e+00
4.131540277838716829e-02,2.599133843625689097e-02,0.000000000000000000e+00
1.614370255788115729e-02,2.599133843625689097e-02,0.000000000000000000e+00
0.000000000000000000e+00,2.105778690519676324e-02,0.000000000000000000e+00
1.973965973223915787e-02,2.599133843625689097e-02,0.000000000000000000e+00
1.973965973223915787e-02,0.000000000000000000e+00,0.000000000000000000e+00
4.491135995274516540e-02,3.092488996731701523e-02,0.000000000000000000e+00
8.951788209165152665e-03,5.065909609155752613e-02,0.000000000000000000e+00
3.052753125531316308e-02,7.039330221579802316e-02,0.000000000000000000e+00
1.168305034399052117e-01,8.519395680897841328e-02,0.000000000000000000e+00
7.367901734760917698e-02,9.012750834003853406e-02,0.000000000000000000e+00
5.569923147581917061e-02,5.559264762261764692e-02,0.000000000000000000e+00
1.254774538352315325e-02,5.559264762261764692e-02,0.000000000000000000e+00
4.131540277838716829e-02,-1.347707381222412043e-02,0.000000000000000000e+00
0.000000000000000000e+00,-8.543522281163994439e-03,0.000000000000000000e+00
-2.700778353441486701e-02,-2.334417687434437241e-02,0.000000000000000000e+00
8.951788209165152665e-03,-8.543522281163994439e-03,0.000000000000000000e+00
-3.419969788313087511e-02,-1.841062534328424469e-02,0.000000000000000000e+00
-4.139161223184688321e-02,-3.814483146752475212e-02,0.000000000000000000e+00
-5.577544092927888553e-02,-3.609970750103867580e-03,0.000000000000000000e+00
-1.981586918569886238e-02,0.000000000000000000e+00,0.000000000000000000e+00
-4.139161223184688321e-02,0.000000000000000000e+00,0.000000000000000000e+00
-7.735118397542689594e-02,-8.543522281163994439e-03,0.000000000000000000e+00
-4.858352658056287743e-02,1.323580780956258628e-03,0.000000000000000000e+00
-5.217948375492088148e-02,1.323580780956258628e-03,0.000000000000000000e+00
-3.779565505748887222e-02,-3.609970750103867580e-03,0.000000000000000000e+00
-4.498756940620488032e-02,-1.347707381222412043e-02,0.000000000000000000e+00
-6.296735527799489363e-02,1.119068384307650953e-02,0.000000000000000000e+00
-3.779565505748887222e-02,-1.841062534328424469e-02,0.000000000000000000e+00
-4.139161223184688321e-02,1.612423537413663552e-02,0.000000000000000000e+00
-4.139161223184688321e-02,1.098617144642790450e-01,1.927635024484003201e-01
0.000000000000000000e+00,0.000000000000000000e+00,1.927635024484003201e-01
0.000000000000000000e+00,0.000000000000000000e+00,1.927635024484003201e-01
0.000000000000000000e+00,0.000000000000000000e+00,1.927635024484003201e-01
0.000000000000000000e+00,0.000000000000000000e+00,1.927635024484003201e-01
0.000000000000000000e+00,0.000000000000000000e+00,1.927635024484003201e-01
0.000000000000000000e+00,0.000000000000000000e+00,1.927635024484003201e-01
0.000000000000000000e+00,0.000000000000000000e+00,1.927635024484003201e-01
0.000000000000000000e+00,0.000000000000000000e+00,1.927635024484003201e-01
0.000000000000000000e+00,0.000000000000000000e+00,1.927635024484003201e-01
0.000000000000000000e+00,0.000000000000000000e+00,1.927635024484003201e-01
0.000000000000000000e+00,0.000000000000000000e+00,1.927635024484003201e-01
0.000000000000000000e+00,0.000000000000000000e+00,1.927635024484003201e-01
0.000000000000000000e+00,0.000000000000000000e+00,1.927635024484003201e-01
0.000000000000000000e+00,0.000000000000000000e+00,1.927635024484003201e-01
0.000000000000000000e+00,0.000000000000000000e+00,1.927635024484003201e-01
0.000000000000000000e+00,0.000000000000000000e+00,1.927635024484003201e-01
0.000000000000000000e+00,0.000000000000000000e+00,1.927635024484003201e-01
0.000000000000000000e+00,0.000000000000000000e+00,1.927635024484003201e-01
0.000000000000000000e+00,0.000000000000000000e+00,1.927635024484003201e-01
0.000000000000000000e+00,0.000000000000000000e+00,1.927635024484003201e-01
0.000000000000000000e+00,0.000000000000000000e+00,1.927635024484003201e-01
0.000000000000000000e+00,0.000000000000000000e+00,1.927635024484003201e-01
0.000000000000000000e+00,0.000000000000000000e+00,1.927635024484003201e-01
0.000000000000000000e+00,0.000000000000000000e+00,1.927635024484003201e-01
0.000000000000000000e+00,0.000000000000000000e+00,1.927635024484003201e-01
0.000000000000000000e+00,0.000000000000000000e+00,1.927635024484003201e-01
0.000000000000000000e+00,0.000000000000000000e+00,1.927635024484003201e-01
0.000000000000000000e+00,0.000000000000000000e+00,1.927635024484003201e-01
0.000000000000000000e+00,0.000000000000000000e+00,1.927635024484003201e-01
0.000000000000000000e+00,0.000000000000000000e+00,1.927635024484003201e-01
0.000000000000000000e+00,0.000000000000000000e+00,1.927635024484003201e-01
0.000000000000000000e+00,0.000000000000000000e+00,1.927635024484003201e-01
0.000000000000000000e+00,0.000000000000000000e+00,1.927635024484003201e-01
0.000000000000000000e+00,0.000000000000000000e+00,1.927635024484003201e-01
0.000000000000000000e+00,0.000000000000000000e+00,1.927635024484003201e-01
0.000000000000000000e+00,0.000000000000000000e+00,1.927635024484003201e-01
0.000000000000000000e+00,0.000000000000000000e+00,1.927635024484003201e-01
0.000000000000000000e+00,0.000000000000000000e+00,1.927635024484003201e-01
0.000000000000000000e+00,0.000000000000000000e+00,1.927635024484003201e-01
0.000000000000000000e+00,0.000000000000000000e+00,1.927635024484003201e-01
0.000000000000000000e+00,0.000000000000000000e+00,1.927635024484003201e-01
0.000000000000000000e+00,0.000000000000000000e+00,1.927635024484003201e-01
0.000000000000000000e+00,0.000000000000000000e+00,1.927635024484003201e-01
0.000000000000000000e+00,0.000000000000000000e+00,1.927635024484003201e-01
0.000000000000000000e+00,0.000000000000000000e+00,1.927635024484003201e-01
0.000000000000000000e+00,0.000000000000000000e+00,1.927635024484003201e-01
0.000000000000000000e+00,0.000000000000000000e+00,1.927635024484003201e-01
0.000000000000000000e+00,0.000000000000000000e+00,1.927635024484003201e-01
0.000000000000000000e+00,0.000000000000000000e+00,1.927635024484003201e-01
0.000000000000000000e+00,0.000000000000000000e+00,1.927635024484003201e-01
0.000000000000000000e+00,0.000000000000000000e+00,1.927635024484003201e-01
0.000000000000000000e+00,0.000000000000000000e+00,1.927635024484003201e-01
0.000000000000000000e+00,0.000000000000000000e+00,1.927635024484003201e-01
0.000000000000000000e+00,0.000000000000000000e+00,1.927635024484003201e-01
0.000000000000000000e+00,0.000000000000000000e+00,1.927635024484003201e-01
0.000000000000000000e+00,0.000000000000000000e+00,1.927635024484003201e-01
0.000000000000000000e+00,0.000000000000000000e+00,1.927635024484003201e-01
