4.260828204346934212e-01,-3.390914748621924324e-01,0.000000000000000000e+00
6.058806791525934710e-01,-2.897559595515911690e-01,0.000000000000000000e+00
4.440626063064833651e-01,2.352456267072682711e-02,0.000000000000000000e+00
2.139213471475712447e-01,-2.334417687434437241e-02,0.000000000000000000e+00
-1.621991201134086180e-02,1.197288175263992865e-01,0.000000000000000000e+00
-6.296735527799489363e-02,2.480011573339625797e-01,0.000000000000000000e+00
-9.027997662624857172e-03,4.157419093900068252e-01,0.000000000000000000e+00
-1.169067128933649058e-01,5.982833160392315719e-01,0.000000000000000000e+00
-5.577544092927888553e-02,6.180175221634720550e-01,0.000000000000000000e+00
-5.937139810363688264e-02,3.417386364241049579e-01,0.000000000000000000e+00
-1.097147985446489116e-01,2.599133843625689097e-02,0.000000000000000000e+00
-2.463611711702529683e-01,-1.022810013713063848e-01,0.000000000000000000e+00
-2.535530855189689903e-01,-1.022810013713063848e-01,0.000000000000000000e+00
-2.535530855189689903e-01,-1.318823105576671373e-01,0.000000000000000000e+00
-2.967045716112650111e-01,-1.269487590266070165e-01,0.000000000000000000e+00
-2.535530855189689903e-01,-1.269487590266070165e-01,0.000000000000000000e+00
-3.003005287856230221e-01,-1.269487590266070165e-01,0.000000000000000000e+00
-3.110884003086970551e-01,-1.516165166819076482e-01,0.000000000000000000e+00
-3.182803146574130770e-01,-1.466829651508475274e-01,0.000000000000000000e+00
-3.937954153189310857e-01,-1.466829651508475274e-01,0.000000000000000000e+00
-4.261590298881531291e-01,-1.664171712750880383e-01,0.000000000000000000e+00
-4.189671155394371072e-01,-1.664171712750880383e-01,0.000000000000000000e+00
-4.477347729343010840e-01,-1.910849289303886422e-01,0.000000000000000000e+00
-4.872903018522391494e-01,-2.009520319925089116e-01,0.000000000000000000e+00
-4.872903018522391494e-01,-2.305533411788696641e-01,0.000000000000000000e+00
-5.124620020727451708e-01,-2.700217534273506859e-01,0.000000000000000000e+00
-4.872903018522391494e-01,-2.798888564894709274e-01,0.000000000000000000e+00
-4.513307301086590950e-01,-2.946895110826513453e-01,0.000000000000000000e+00
-4.117752011907210852e-01,-3.045566141447715869e-01,0.000000000000000000e+00
-3.470479720522770539e-01,-3.094901656758316522e-01,0.000000000000000000e+00
-2.823207429138330227e-01,-2.848224080205310482e-01,0.000000000000000000e+00
-1.996137279035989365e-01,-2.552210988341702680e-01,0.000000000000000000e+00
-9.892692702157489248e-02,-2.305533411788696641e-01,0.000000000000000000e+00
-4.139161223184688321e-02,-2.009520319925089116e-01,0.000000000000000000e+00
3.771944560402916424e-02,-1.466829651508475274e-01,0.000000000000000000e+00
9.525476039375720128e-02,-1.516165166819076482e-01,0.000000000000000000e+00
6.289114582453517177e-02,-8.254679524706588778e-02,0.000000000000000000e+00
1.240224177886212337e-01,-6.774614065388549766e-02,0.000000000000000000e+00
1.527900751834852244e-01,-5.294548606070512142e-02,0.000000000000000000e+00
1.563860323578432354e-01,-2.827772840540449667e-02,0.000000000000000000e+00
1.527900751834852244e-01,-2.827772840540449667e-02,0.000000000000000000e+00
1.312143321373372140e-01,-1.347707381222412043e-02,0.000000000000000000e+00
1.491941180091272412e-01,1.612423537413663552e-02,0.000000000000000000e+00
1.204264606142632227e-01,0.000000000000000000e+00,0.000000000000000000e+00
1.563860323578432354e-01,0.000000000000000000e+00,0.000000000000000000e+00
1.168305034399052117e-01,4.079199302943727068e-02,0.000000000000000000e+00
1.312143321373372140e-01,4.079199302943727068e-02,0.000000000000000000e+00
1.455981608347692302e-01,4.572554456049739841e-02,0.000000000000000000e+00
1.204264606142632227e-01,5.065909609155752613e-02,0.000000000000000000e+00
1.276183749629792308e-01,5.065909609155752613e-02,0.000000000000000000e+00
1.527900751834852244e-01,5.065909609155752613e-02,0.000000000000000000e+00
1.743658182296332626e-01,5.065909609155752613e-02,0.000000000000000000e+00
1.707698610552752516e-01,3.585844149837714295e-02,0.000000000000000000e+00
1.995375184501392840e-01,5.559264762261764692e-02,0.000000000000000000e+00
2.354970901937192551e-01,1.197288175263992865e-01,0.000000000000000000e+00
2.858404906347312702e-01,1.197288175263992865e-01,0.000000000000000000e+00
2.858404906347312702e-01,9.999461140215877564e-02,0.000000000000000000e+00
3.289919767270273465e-01,8.519395680897841328e-02,0.000000000000000000e+00
3.541636769475333124e-01,2.599133843625689097e-02,0.000000000000000000e+00
2.966283621578053031e-01,-8.543522281163994439e-03,0.000000000000000000e+00
3.253960195526693355e-01,-3.609970750103867580e-03,0.000000000000000000e+00
2.822445334603732592e-01,-3.814483146752475212e-02,0.000000000000000000e+00
2.750526191116572927e-01,-1.121481044334266264e-01,0.000000000000000000e+00
2.642647475885832598e-01,-3.884269901727937513e-01,0.000000000000000000e+00
2.606687904142253043e-01,-5.857690514151987493e-01,0.000000000000000000e+00
2.858404906347312702e-01,-5.660348452909582662e-01,0.000000000000000000e+00
5.569923147581917061e-02,-7.337755973470025950e-01,1.927635024484003201e-01
0.000000000000000000e+00,0.000000000000000000e+00,1.927635024484003201e-01
0.000000000000000000e+00,0.000000000000000000e+00,1.927635024484003201e-01
0.000000000000000000e+00,0.000000000000000000e+00,1.927635024484003201e-01
0.000000000000000000e+00,0.000000000000000000e+00,1.927635024484003201e-01
0.000000000000000000e+00,0.000000000000000000e+00,1.927635024484003201e-01
0.000000000000000000e+00,0.000000000000000000e+00,1.927635024484003201e-01
0.000000000000000000e+00,0.000000000000000000e+00,1.927635024484003201e-01
0.000000000000000000e+00,0.000000000000000000e+00,1.927635024484003201e-01
0.000000000000000000e+00,0.000000000000000000e+00,1.927635024484003201e-01
0.000000000000000000e+00,0.000000000000000000e+00,1.927635024484003201e-01
0.000000000000000000e+00,0.000000000000000000e+00,1.927635024484003201e-01
0.000000000000000000e+00,0.000000000000000000e+00,1.927635024484003201e-01
0.000000000000000000e+00,0.000000000000000000e+00,1.927635024484003201e-01
0.000000000000000000e+00,0.000000000000000000e+00,1.927635024484003201e-01
0.000000000000000000e+00,0.000000000000000000e+00,1.927635024484003201e-01
0.000000000000000000e+00,0.000000000000000000e+00,1.927635024484003201e-01
0.000000000000000000e+00,0.000000000000000000e+00,1.927635024484003201e-01
0.000000000000000000e+00,0.000000000000000000e+00,1.927635024484003201e-01
0.000000000000000000e+00,0.000000000000000000e+00,1.927635024484003201e-01
0.000000000000000000e+00,0.000000000000000000e+00,1.927635024484003201e-01
0.000000000000000000e+00,0.000000000000000000e+00,1.927635024484003201e-01
0.000000000000000000e+00,0.000000000000000000e+00,1.927635024484003201e-01
0.000000000000000000e+00,0.000000000000000000e+00,1.927635024484003201e-01
0.000000000000000000e+00,0.000000000000000000e+00,1.927635024484003201e-01
0.000000000000000000e+00,0.000000000000000000e+00,1.927635024484003201e-01
0.000000000000000000e+00,0.000000000000000000e+00,1.927635024484003201e-01
0.000000000000000000e+00,0.000000000000000000e+00,1.927635024484003201e-01
0.000000000000000000e+00,0.000000000000000000e+00,1.927635024484003201e-01
0.000000000000000000e+00,0.000000000000000000e+00,1.927635024484003201e-01
0.000000000000000000e+00,0.000000000000000000e+00,1.927635024484003201e-01
0.000000000000000000e+00,0.000000000000000000e+00,1.927635024484003201e-01
0.000000000000000000e+00,0.000000000000000000e+00,1.927635024484003201e-01
0.000000000000000000e+00,0.000000000000000000e+00,1.927635024484003201e-01
0.000000000000000000e+00,0.000000000000000000e+00,1.927635024484003201e-01
0.000000000000000000e+00,0.000000000000000000e+00,1.927635024484003201e-01
0.000000000000000000e+00,0.000000000000000000e+00,1.927635024484003201e-01
0.000000000000000000e+00,0.000000000000000000e+00,1.927635024484003201e-01
0.000000000000000000e+00,0.000000000000000000e+00,1.927635024484003201e-01
0.000000000000000000e+00,0.000000000000000000e+00,1.927635024484003201e-01
0.000000000000000000e+00,0.000000000000000000e+00,1.927635024484003201e-01
0.000000000000000000e+00,0.000000000000000000e+00,1.927635024484003201e-01
0.000000000000000000e+00,0.000000000000000000e+00,1.927635024484003201e-01
0.000000000000000000e+00,0.000000000000000000e+00,1.927635024484003201e-01
0.000000000000000000e+00,0.000000000000000000e+00,1.927635024484003201e-01
0.000000000000000000e+00,0.000000000000000000e+00,1.927635024484003201e-01
0.000000000000000000e+00,0.000000000000000000e+00,1.927635024484003201e-01
0.000000000000000000e+00,0.000000000000000000e+00,1.927635024484003201e-01
0.000000000000000000e+00,0.000000000000000000e+00,1.927635024484003201e-01
0.000000000000000000e+00,0.000000000000000000e+00,1.927635024484003201e-01
0.000000000000000000e+00,0.000000000000000000e+00,1.927635024484003201e-01
0.000000000000000000e+00,0.000000000000000000e+00,1.927635024484003201e-01
0.000000000000000000e+00,0.000000000000000000e+00,1.927635024484003201e-01
0.000000000000000000e+00,0.000000000000000000e+00,1.927635024484003201e-01
0.000000000000000000e+00,0.000000000000000000e+00,1.927635024484003201e-01
0.000000000000000000e+00,0.000000000000000000e+00,1.927635024484003201e-01
0.000000000000000000e+00,0.000000000000000000e+00,1.927635024484003201e-01
0.000000000000000000e+00,0.000000000000000000e+00,1.927635024484003201e-01
0.000000000000000000e+00,0.000000000000000000e+00,1.927635024484003201e-01
0.000000000000000000e+00,0.000000000000000000e+00,1.927635024484003201e-01
0.000000000000000000e+00,0.000000000000000000e+00,1.927635024484003201e-01
0.000000000000000000e+00,0.000000000000000000e+00,1.927635024484003201e-01
0.000000000000000000e+00,0.000000000000000000e+00,1.927635024484003201e-01
0.000000000000000000e+00,0.000000000000000000e+00,1.927635024484003201e-01
0.000000000000000000e+00,0.000000000000000000e+00,1.927635024484003201e-01
0.000000000000000000e+00,0.000000000000000000e+00,1.927635024484003201e-01
0.000000000000000000e+00,0.000000000000000000e+00,1.927635024484003201e-01
0.000000000000000000e+00,0.000000000000000000e+00,1.927635024484003201e-01
0.000000000000000000e+00,0.000000000000000000e+00,1.927635024484003201e-01
0.000000000000000000e+00,0.000000000000000000e+00,1.927635024484003201e-01
0.000000000000000000e+00,0.000000000000000000e+00,1.927635024484003201e-01
0.000000000000000000e+00,0.000000000000000000e+00,1.927635024484003201e-01
0.000000000000000000e+00,0.000000000000000000e+00,1.927635024484003201e-01
0.000000000000000000e+00,0.000000000000000000e+00,1.927635024484003201e-01
0.000000000000000000e+00,0.000000000000000000e+00,1.927635024484003201e-01
0.000000000000000000e+00,0.000000000000000000e+00,1.927635024484003201e-01
0.000000000000000000e+00,0.000000000000000000e+00,1.927635024484003201e-01
0.000000000000000000e+00,0.000000000000000000e+00,1.927635024484003201e-01
0.000000000000000000e+00,0.000000000000000000e+00,1.927635024484003201e-01
0.000000000000000000e+00,0.000000000000000000e+00,1.927635024484003201e-01
0.000000000000000000e+00,0.000000000000000000e+00,1.927635024484003201e-01
0.000000000000000000e+00,0.000000000000000000e+00,1.927635024484003201e-01
0.000000000000000000e+00,0.000000000000000000e+00,1.927635024484003201e-01
0.000000000000000000e+00,0.000000000000000000e+00,1.927635024484003201e-01
0.000000000000000000e+00,0.000000000000000000e+00,1.927635024484003201e-01
0.000000000000000000e+00,0.000000000000000000e+00,1.927635024484003201e-01
