1.527900751834852244e-01,-1.269487590266070165e-01,0.000000000000000000e+00
3.433758054244592794e-01,-4.426960570144551355e-01,0.000000000000000000e+00
4.944060067474954079e-01,-4.525631600765753215e-01,0.000000000000000000e+00
2.642647475885832598e-01,-1.392826378542573462e-01,0.000000000000000000e+00
3.412348842967116713e-02,5.559264762261764692e-02,0.000000000000000000e+00
-1.960177707292409255e-01,2.134662966165417064e-01,0.000000000000000000e+00
-1.528662846369449324e-01,3.664063940794055618e-01,0.000000000000000000e+00
-1.836083313908854061e-03,4.996122854180289896e-01,0.000000000000000000e+00
-4.498756940620488032e-02,7.512234135020954273e-01,0.000000000000000000e+00
-1.981586918569886238e-02,8.745622017785984470e-01,0.000000000000000000e+00
-7.015926962671088785e-02,6.574859344119530213e-01,0.000000000000000000e+00
-4.139161223184688321e-02,3.417386364241049579e-01,0.000000000000000000e+00
-7.375522680106889883e-02,2.599133843625689097e-02,0.000000000000000000e+00
-1.528662846369449324e-01,0.000000000000000000e+00,0.000000000000000000e+00
-1.348864987651549052e-01,-3.609970750103867580e-03,0.000000000000000000e+00
-1.564622418113029434e-01,-4.307838299858487291e-02,0.000000000000000000e+00
-1.708460705087349318e-01,-4.801193452964499370e-02,0.000000000000000000e+00
-1.816339420318089370e-01,-3.814483146752475212e-02,0.000000000000000000e+00
-1.816339420318089370e-01,-3.321127993646462440e-02,0.000000000000000000e+00
-1.852298992061669480e-01,-2.827772840540449667e-02,0.000000000000000000e+00
-2.499571283446109793e-01,-6.774614065388549766e-02,0.000000000000000000e+00
-2.104015994266729694e-01,-6.774614065388549766e-02,0.000000000000000000e+00
-2.427652139958950128e-01,-7.761324371600575311e-02,0.000000000000000000e+00
-1.924218135548829423e-01,-7.761324371600575311e-02,0.000000000000000000e+00
-2.355732996471789908e-01,-7.267969218494563233e-02,0.000000000000000000e+00
-2.787247857394750117e-01,-1.022810013713063848e-01,0.000000000000000000e+00
-2.571490426933270013e-01,-1.121481044334266264e-01,0.000000000000000000e+00
-2.607449998676850123e-01,-1.516165166819076482e-01,0.000000000000000000e+00
-2.607449998676850123e-01,-1.565500682129677967e-01,0.000000000000000000e+00
-2.751288285651170562e-01,-1.762842743372082799e-01,0.000000000000000000e+00
-2.283813852984629411e-01,-2.157526865856893017e-01,0.000000000000000000e+00
-2.715328713907590452e-01,-2.058855835235690046e-01,0.000000000000000000e+00
-1.600581989856609266e-01,-2.206862381167494225e-01,0.000000000000000000e+00
-1.780379848574509538e-01,-2.552210988341702680e-01,0.000000000000000000e+00
-1.276945844164389110e-01,-2.206862381167494225e-01,0.000000000000000000e+00
-6.656331245235289074e-02,-2.650882018962905651e-01,0.000000000000000000e+00
1.759873860449148036e-03,-2.404204442409899056e-01,0.000000000000000000e+00
-2.700778353441486701e-02,-2.256197896478095433e-01,0.000000000000000000e+00
1.060426319168311926e-01,-1.664171712750880383e-01,0.000000000000000000e+00
8.446688887068319607e-02,-1.466829651508475274e-01,0.000000000000000000e+00
1.096385890911892036e-01,-1.170816559644867610e-01,0.000000000000000000e+00
1.420022036604112470e-01,-1.072145529023665056e-01,0.000000000000000000e+00
1.204264606142632227e-01,-8.748034677812600857e-02,0.000000000000000000e+00
1.455981608347692302e-01,-5.787903759176525609e-02,0.000000000000000000e+00
2.139213471475712447e-01,-1.841062534328424469e-02,0.000000000000000000e+00
1.276183749629792308e-01,-4.307838299858487291e-02,0.000000000000000000e+00
1.815577325783492568e-01,-3.609970750103867580e-03,0.000000000000000000e+00
1.563860323578432354e-01,-1.841062534328424469e-02,0.000000000000000000e+00
1.599819895322012464e-01,-8.543522281163994439e-03,0.000000000000000000e+00
1.491941180091272412e-01,0.000000000000000000e+00,0.000000000000000000e+00
1.312143321373372140e-01,-3.609970750103867580e-03,0.000000000000000000e+00
1.995375184501392840e-01,0.000000000000000000e+00,0.000000000000000000e+00
1.024466747424731955e-01,1.612423537413663552e-02,0.000000000000000000e+00
1.348102893116952250e-01,1.612423537413663552e-02,0.000000000000000000e+00
1.276183749629792308e-01,-1.347707381222412043e-02,0.000000000000000000e+00
1.743658182296332626e-01,5.065909609155752613e-02,0.000000000000000000e+00
1.384062464860532360e-01,1.612423537413663552e-02,0.000000000000000000e+00
1.348102893116952250e-01,0.000000000000000000e+00,0.000000000000000000e+00
1.420022036604112470e-01,1.612423537413663552e-02,0.000000000000000000e+00
1.527900751834852244e-01,2.105778690519676324e-02,0.000000000000000000e+00
1.851536897527072678e-01,0.000000000000000000e+00,0.000000000000000000e+00
1.384062464860532360e-01,1.612423537413663552e-02,0.000000000000000000e+00
1.024466747424731955e-01,1.323580780956258628e-03,0.000000000000000000e+00
1.635779467065592574e-01,1.323580780956258628e-03,0.000000000000000000e+00
1.312143321373372140e-01,1.119068384307650953e-02,0.000000000000000000e+00
8.806284604504119318e-02,0.000000000000000000e+00,0.000000000000000000e+00
1.384062464860532360e-01,1.612423537413663552e-02,0.000000000000000000e+00
1.096385890911892036e-01,2.105778690519676324e-02,0.000000000000000000e+00
1.204264606142632227e-01,2.105778690519676324e-02,0.000000000000000000e+00
8.806284604504119318e-02,-3.609970750103867580e-03,0.000000000000000000e+00
9.885071756811519839e-02,3.092488996731701523e-02,0.000000000000000000e+00
1.851536897527072678e-01,2.599133843625689097e-02,0.000000000000000000e+00
1.527900751834852244e-01,8.026040527791827861e-02,0.000000000000000000e+00
1.815577325783492568e-01,9.999461140215877564e-02,0.000000000000000000e+00
1.995375184501392840e-01,5.559264762261764692e-02,0.000000000000000000e+00
1.132345462655472146e-01,3.092488996731701523e-02,0.000000000000000000e+00
1.671739038809172406e-01,3.092488996731701523e-02,0.000000000000000000e+00
8.806284604504119318e-02,-2.827772840540449667e-02,0.000000000000000000e+00
1.204264606142632227e-01,-1.841062534328424469e-02,0.000000000000000000e+00
7.008306017325117987e-02,-1.841062534328424469e-02,0.000000000000000000e+00
8.446688887068319607e-02,-1.841062534328424469e-02,0.000000000000000000e+00
3.412348842967116713e-02,-5.294548606070512142e-02,0.000000000000000000e+00
8.087093169632518508e-02,-3.321127993646462440e-02,0.000000000000000000e+00
5.569923147581917061e-02,-3.609970750103867580e-03,0.000000000000000000e+00
9.525476039375720128e-02,-1.347707381222412043e-02,0.000000000000000000e+00
-3.419969788313087511e-02,-1.347707381222412043e-02,0.000000000000000000e+00
6.289114582453517177e-02,-2.827772840540449667e-02,0.000000000000000000e+00
3.412348842967116713e-02,-2.334417687434437241e-02,0.000000000000000000e+00
9.885071756811519839e-02,4.079199302943727068e-02,0.000000000000000000e+00
4.131540277838716829e-02,-3.609970750103867580e-03,0.000000000000000000e+00
1.759873860449148036e-03,-1.841062534328424469e-02,0.000000000000000000e+00
3.412348842967116713e-02,-1.347707381222412043e-02,0.000000000000000000e+00
9.885071756811519839e-02,-1.841062534328424469e-02,0.000000000000000000e+00
1.254774538352315325e-02,5.065909609155752613e-02,1.927635024484003201e-01
0.000000000000000000e+00,0.000000000000000000e+00,1.927635024484003201e-01
0.000000000000000000e+00,0.000000000000000000e+00,1.927635024484003201e-01
0.000000000000000000e+00,0.000000000000000000e+00,1.927635024484003201e-01
0.000000000000000000e+00,0.000000000000000000e+00,1.927635024484003201e-01
0.000000000000000000e+00,0.000000000000000000e+00,1.927635024484003201e-01
0.000000000000000000e+00,0.000000000000000000e+00,1.927635024484003201e-01
0.000000000000000000e+00,0.000000000000000000e+00,1.927635024484003201e-01
0.000000000000000000e+00,0.000000000000000000e+00,1.927635024484003201e-01
0.000000000000000000e+00,0.000000000000000000e+00,1.927635024484003201e-01
0.000000000000000000e+00,0.000000000000000000e+00,1.927635024484003201e-01
0.000000000000000000e+00,0.000000000000000000e+00,1.927635024484003201e-01
0.000000000000000000e+00,0.000000000000000000e+00,1.927635024484003201e-01
0.000000000000000000e+00,0.000000000000000000e+00,1.927635024484003201e-01
0.000000000000000000e+00,0.000000000000000000e+00,1.927635024484003201e-01
0.000000000000000000e+00,0.000000000000000000e+00,1.927635024484003201e-01
0.000000000000000000e+00,0.000000000000000000e+00,1.927635024484003201e-01
0.000000000000000000e+00,0.000000000000000000e+00,1.927635024484003201e-01
0.000000000000000000e+00,0.000000000000000000e+00,1.927635024484003201e-01
0.000000000000000000e+00,0.000000000000000000e+00,1.927635024484003201e-01
0.000000000000000000e+00,0.000000000000000000e+00,1.927635024484003201e-01
0.000000000000000000e+00,0.000000000000000000e+00,1.927635024484003201e-01
0.000000000000000000e+00,0.000000000000000000e+00,1.927635024484003201e-01
0.000000000000000000e+00,0.000000000000000000e+00,1.927635024484003201e-01
0.000000000000000000e+00,0.000000000000000000e+00,1.927635024484003201e-01
0.000000000000000000e+00,0.000000000000000000e+00,1.927635024484003201e-01
0.000000000000000000e+00,0.000000000000000000e+00,1.927635024484003201e-01
0.000000000000000000e+00,0.000000000000000000e+00,1.927635024484003201e-01
0.000000000000000000e+00,0.000000000000000000e+00,1.927635024484003201e-01
0.000000000000000000e+00,0.000000000000000000e+00,1.927635024484003201e-01
0.000000000000000000e+00,0.000000000000000000e+00,1.927635024484003201e-01
0.000000000000000000e+00,0.000000000000000000e+00,1.927635024484003201e-01
0.000000000000000000e+00,0.000000000000000000e+00,1.927635024484003201e-01
0.000000000000000000e+00,0.000000000000000000e+00,1.927635024484003201e-01
0.000000000000000000e+00,0.000000000000000000e+00,1.927635024484003201e-01
0.000000000000000000e+00,0.000000000000000000e+00,1.927635024484003201e-01
0.000000000000000000e+00,0.000000000000000000e+00,1.927635024484003201e-01
0.000000000000000000e+00,0.000000000000000000e+00,1.927635024484003201e-01
0.000000000000000000e+00,0.000000000000000000e+00,1.927635024484003201e-01
0.000000000000000000e+00,0.000000000000000000e+00,1.927635024484003201e-01
0.000000000000000000e+00,0.000000000000000000e+00,1.927635024484003201e-01
0.000000000000000000e+00,0.000000000000000000e+00,1.927635024484003201e-01
0.000000000000000000e+00,0.000000000000000000e+00,1.927635024484003201e-01
0.000000000000000000e+00,0.000000000000000000e+00,1.927635024484003201e-01
0.000000000000000000e+00,0.000000000000000000e+00,1.927635024484003201e-01
0.000000000000000000e+00,0.000000000000000000e+00,1.927635024484003201e-01
0.000000000000000000e+00,0.000000000000000000e+00,1.927635024484003201e-01
0.000000000000000000e+00,0.000000000000000000e+00,1.927635024484003201e-01
0.000000000000000000e+00,0.000000000000000000e+00,1.927635024484003201e-01
0.000000000000000000e+00,0.000000000000000000e+00,1.927635024484003201e-01
0.000000000000000000e+00,0.000000000000000000e+00,1.927635024484003201e-01
0.000000000000000000e+00,0.000000000000000000e+00,1.927635024484003201e-01
0.000000000000000000e+00,0.000000000000000000e+00,1.927635024484003201e-01
0.000000000000000000e+00,0.000000000000000000e+00,1.927635024484003201e-01
0.000000000000000000e+00,0.000000000000000000e+00,1.927635024484003201e-01
0.000000000000000000e+00,0.000000000000000000e+00,1.927635024484003201e-01
0.000000000000000000e+00,0.000000000000000000e+00,1.927635024484003201e-01
0.000000000000000000e+00,0.000000000000000000e+00,1.927635024484003201e-01
0.000000000000000000e+00,0.000000000000000000e+00,1.927635024484003201e-01
