2.822445334603732592e-01,-2.256197896478095433e-01,0.000000000000000000e+00
5.105878140321064018e-01,-4.673638146697556839e-01,0.000000000000000000e+00
5.519413215372234172e-01,-1.664171712750880383e-01,0.000000000000000000e+00
5.195777069680014293e-01,1.468633509472299925e-01,0.000000000000000000e+00
2.894364478090892812e-01,9.999461140215877564e-02,0.000000000000000000e+00
5.929518865017718160e-02,3.318715333619847163e-01,0.000000000000000000e+00
2.175173043219292557e-01,4.256090124521271223e-01,0.000000000000000000e+00
2.858404906347312702e-01,5.736155583839309680e-01,0.000000000000000000e+00
2.247092186706452777e-01,7.857582742195162728e-01,0.000000000000000000e+00
2.642647475885832598e-01,7.364227589089149539e-01,0.000000000000000000e+00
2.570728332398672933e-01,4.206754609210670015e-01,0.000000000000000000e+00
5.569923147581917061e-02,1.049281629332189242e-01,0.000000000000000000e+00
-3.419969788313087511e-02,-8.543522281163994439e-03,0.000000000000000000e+00
-7.015926962671088785e-02,-1.841062534328424469e-02,0.000000000000000000e+00
-8.813905549850090115e-02,-3.321127993646462440e-02,0.000000000000000000e+00
-1.276945844164389110e-01,-5.294548606070512142e-02,0.000000000000000000e+00
-1.205026700677229168e-01,-5.294548606070512142e-02,0.000000000000000000e+00
-1.456743702882289104e-01,-4.307838299858487291e-02,0.000000000000000000e+00
-1.564622418113029434e-01,-6.774614065388549766e-02,0.000000000000000000e+00
-1.816339420318089370e-01,-5.787903759176525609e-02,0.000000000000000000e+00
-1.888258563805249590e-01,-5.787903759176525609e-02,0.000000000000000000e+00
-1.888258563805249590e-01,-6.774614065388549766e-02,0.000000000000000000e+00
-2.139975566010309804e-01,-8.748034677812600857e-02,0.000000000000000000e+00
-2.283813852984629411e-01,-6.281258912282537687e-02,0.000000000000000000e+00
-2.427652139958950128e-01,-9.241389830918614323e-02,0.000000000000000000e+00
-2.355732996471789908e-01,-9.734744984024626402e-02,0.000000000000000000e+00
-2.751288285651170562e-01,-9.734744984024626402e-02,0.000000000000000000e+00
-2.823207429138330227e-01,-1.417494136197874066e-01,0.000000000000000000e+00
-3.074924431343390441e-01,-1.220152074955468957e-01,0.000000000000000000e+00
-3.074924431343390441e-01,-1.466829651508475274e-01,0.000000000000000000e+00
-3.254722290061290435e-01,-1.664171712750880383e-01,0.000000000000000000e+00
-3.326641433548450655e-01,-2.058855835235690046e-01,0.000000000000000000e+00
-3.254722290061290435e-01,-1.960184804614487630e-01,0.000000000000000000e+00
-2.967045716112650111e-01,-2.108191350546291531e-01,0.000000000000000000e+00
-2.931086144369070001e-01,-2.305533411788696641e-01,0.000000000000000000e+00
-2.571490426933270013e-01,-2.256197896478095433e-01,0.000000000000000000e+00
-2.175935137753889637e-01,-2.256197896478095433e-01,0.000000000000000000e+00
-1.564622418113029434e-01,-2.256197896478095433e-01,0.000000000000000000e+00
-1.169067128933649058e-01,-2.058855835235690046e-01,0.000000000000000000e+00
-7.735118397542689594e-02,-1.960184804614487630e-01,0.000000000000000000e+00
-5.432040488266855725e-03,-1.812178258682684007e-01,0.000000000000000000e+00
2.693157408095516250e-02,-1.220152074955468957e-01,0.000000000000000000e+00
5.569923147581917061e-02,-1.318823105576671373e-01,0.000000000000000000e+00
8.087093169632518508e-02,-8.748034677812600857e-02,0.000000000000000000e+00
1.240224177886212337e-01,-6.281258912282537687e-02,0.000000000000000000e+00
1.204264606142632227e-01,-4.801193452964499370e-02,0.000000000000000000e+00
1.168305034399052117e-01,-1.841062534328424469e-02,0.000000000000000000e+00
1.132345462655472146e-01,-3.609970750103867580e-03,0.000000000000000000e+00
1.312143321373372140e-01,-1.841062534328424469e-02,0.000000000000000000e+00
1.060426319168311926e-01,2.105778690519676324e-02,0.000000000000000000e+00
9.885071756811519839e-02,-8.543522281163994439e-03,0.000000000000000000e+00
8.446688887068319607e-02,-3.609970750103867580e-03,0.000000000000000000e+00
8.087093169632518508e-02,-3.609970750103867580e-03,0.000000000000000000e+00
8.087093169632518508e-02,3.092488996731701523e-02,0.000000000000000000e+00
7.008306017325117987e-02,0.000000000000000000e+00,0.000000000000000000e+00
7.367901734760917698e-02,-3.609970750103867580e-03,0.000000000000000000e+00
6.648710299889318276e-02,0.000000000000000000e+00,0.000000000000000000e+00
8.087093169632518508e-02,-3.609970750103867580e-03,0.000000000000000000e+00
5.569923147581917061e-02,0.000000000000000000e+00,0.000000000000000000e+00
7.727497452196718797e-02,1.119068384307650953e-02,0.000000000000000000e+00
6.289114582453517177e-02,-3.609970750103867580e-03,0.000000000000000000e+00
5.929518865017718160e-02,1.612423537413663552e-02,0.000000000000000000e+00
3.412348842967116713e-02,1.323580780956258628e-03,0.000000000000000000e+00
4.850731712710316945e-02,0.000000000000000000e+00,0.000000000000000000e+00
2.333561690659716192e-02,-3.609970750103867580e-03,0.000000000000000000e+00
3.771944560402916424e-02,0.000000000000000000e+00,0.000000000000000000e+00
1.973965973223915787e-02,-3.609970750103867580e-03,0.000000000000000000e+00
1.973965973223915787e-02,1.119068384307650953e-02,0.000000000000000000e+00
2.333561690659716192e-02,-3.609970750103867580e-03,0.000000000000000000e+00
0.000000000000000000e+00,1.323580780956258628e-03,0.000000000000000000e+00
-1.836083313908854061e-03,1.323580780956258628e-03,0.000000000000000000e+00
-1.621991201134086180e-02,1.612423537413663552e-02,0.000000000000000000e+00
0.000000000000000000e+00,0.000000000000000000e+00,0.000000000000000000e+00
-2.341182636005686643e-02,1.119068384307650953e-02,0.000000000000000000e+00
-1.621991201134086180e-02,2.599133843625689097e-02,0.000000000000000000e+00
1.254774538352315325e-02,3.092488996731701523e-02,0.000000000000000000e+00
5.569923147581917061e-02,7.039330221579802316e-02,0.000000000000000000e+00
5.569923147581917061e-02,7.532685374685815782e-02,0.000000000000000000e+00
6.289114582453517177e-02,6.052619915367778158e-02,0.000000000000000000e+00
2.693157408095516250e-02,3.585844149837714295e-02,0.000000000000000000e+00
2.693157408095516250e-02,1.119068384307650953e-02,0.000000000000000000e+00
-1.981586918569886238e-02,-2.827772840540449667e-02,0.000000000000000000e+00
-3.419969788313087511e-02,-2.827772840540449667e-02,0.000000000000000000e+00
-4.498756940620488032e-02,1.323580780956258628e-03,0.000000000000000000e+00
-4.858352658056287743e-02,-4.801193452964499370e-02,0.000000000000000000e+00
-5.577544092927888553e-02,-2.334417687434437241e-02,0.000000000000000000e+00
-8.813905549850090115e-02,-5.294548606070512142e-02,0.000000000000000000e+00
-8.094714114978489305e-02,-1.841062534328424469e-02,0.000000000000000000e+00
-7.735118397542689594e-02,-8.543522281163994439e-03,0.000000000000000000e+00
-7.375522680106889883e-02,-3.609970750103867580e-03,0.000000000000000000e+00
-9.533096984721690925e-02,-1.347707381222412043e-02,0.000000000000000000e+00
-7.015926962671088785e-02,-3.609970750103867580e-03,0.000000000000000000e+00
-8.454309832414290404e-02,1.323580780956258628e-03,0.000000000000000000e+00
-7.015926962671088785e-02,-1.841062534328424469e-02,0.000000000000000000e+00
-8.094714114978489305e-02,-8.543522281163994439e-03,0.000000000000000000e+00
-6.656331245235289074e-02,-3.609970750103867580e-03,0.000000000000000000e+00
-6.656331245235289074e-02,-1.347707381222412043e-02,0.000000000000000000e+00
-6.296735527799489363e-02,0.000000000000000000e+00,0.000000000000000000e+00
-5.577544092927888553e-02,9.506105987109865485e-02,0.000000000000000000e+00
1.973965973223915787e-02,1.612423537413663552e-02,1.927635024484003201e-01
0.000000000000000000e+00,0.000000000000000000e+00,1.927635024484003201e-01
0.000000000000000000e+00,0.000000000000000000e+00,1.927635024484003201e-01
0.000000000000000000e+00,0.000000000000000000e+00,1.927635024484003201e-01
0.000000000000000000e+00,0.000000000000000000e+00,1.927635024484003201e-01
0.000000000000000000e+00,0.000000000000000000e+00,1.927635024484003201e-01
0.000000000000000000e+00,0.000000000000000000e+00,1.927635024484003201e-01
0.000000000000000000e+00,0.000000000000000000e+00,1.927635024484003201e-01
0.000000000000000000e+00,0.000000000000000000e+00,1.927635024484003201e-01
0.000000000000000000e+00,0.000000000000000000e+00,1.927635024484003201e-01
0.000000000000000000e+00,0.000000000000000000e+00,1.927635024484003201e-01
0.000000000000000000e+00,0.000000000000000000e+00,1.927635024484003201e-01
0.000000000000000000e+00,0.000000000000000000e+00,1.927635024484003201e-01
0.000000000000000000e+00,0.000000000000000000e+00,1.927635024484003201e-01
0.000000000000000000e+00,0.000000000000000000e+00,1.927635024484003201e-01
0.000000000000000000e+00,0.000000000000000000e+00,1.927635024484003201e-01
0.000000000000000000e+00,0.000000000000000000e+00,1.927635024484003201e-01
0.000000000000000000e+00,0.000000000000000000e+00,1.927635024484003201e-01
0.000000000000000000e+00,0.000000000000000000e+00,1.927635024484003201e-01
0.000000000000000000e+00,0.000000000000000000e+00,1.927635024484003201e-01
0.000000000000000000e+00,0.000000000000000000e+00,1.927635024484003201e-01
0.000000000000000000e+00,0.000000000000000000e+00,1.927635024484003201e-01
0.000000000000000000e+00,0.000000000000000000e+00,1.927635024484003201e-01
0.000000000000000000e+00,0.000000000000000000e+00,1.927635024484003201e-01
0.000000000000000000e+00,0.000000000000000000e+00,1.927635024484003201e-01
0.000000000000000000e+00,0.000000000000000000e+00,1.927635024484003201e-01
0.000000000000000000e+00,0.000000000000000000e+00,1.927635024484003201e-01
0.000000000000000000e+00,0.000000000000000000e+00,1.927635024484003201e-01
0.000000000000000000e+00,0.000000000000000000e+00,1.927635024484003201e-01
0.000000000000000000e+00,0.000000000000000000e+00,1.927635024484003201e-01
0.000000000000000000e+00,0.000000000000000000e+00,1.927635024484003201e-01
0.000000000000000000e+00,0.000000000000000000e+00,1.927635024484003201e-01
0.000000000000000000e+00,0.000000000000000000e+00,1.927635024484003201e-01
0.000000000000000000e+00,0.000000000000000000e+00,1.927635024484003201e-01
0.000000000000000000e+00,0.000000000000000000e+00,1.927635024484003201e-01
0.000000000000000000e+00,0.000000000000000000e+00,1.927635024484003201e-01
0.000000000000000000e+00,0.000000000000000000e+00,1.927635024484003201e-01
0.000000000000000000e+00,0.000000000000000000e+00,1.927635024484003201e-01
0.000000000000000000e+00,0.000000000000000000e+00,1.927635024484003201e-01
0.000000000000000000e+00,0.000000000000000000e+00,1.927635024484003201e-01
0.000000000000000000e+00,0.000000000000000000e+00,1.927635024484003201e-01
0.000000000000000000e+00,0.000000000000000000e+00,1.927635024484003201e-01
0.000000000000000000e+00,0.000000000000000000e+00,1.927635024484003201e-01
0.000000000000000000e+00,0.000000000000000000e+00,1.927635024484003201e-01
0.000000000000000000e+00,0.000000000000000000e+00,1.927635024484003201e-01
0.000000000000000000e+00,0.000000000000000000e+00,1.927635024484003201e-01
0.000000000000000000e+00,0.000000000000000000e+00,1.927635024484003201e-01
0.000000000000000000e+00,0.000000000000000000e+00,1.927635024484003201e-01
0.000000000000000000e+00,0.000000000000000000e+00,1.927635024484003201e-01
0.000000000000000000e+00,0.000000000000000000e+00,1.927635024484003201e-01
0.000000000000000000e+00,0.000000000000000000e+00,1.927635024484003201e-01
0.000000000000000000e+00,0.000000000000000000e+00,1.927635024484003201e-01
0.000000000000000000e+00,0.000000000000000000e+00,1.927635024484003201e-01
