9.525476039375720128e-02,4.572554456049739841e-02,0.000000000000000000e+00
2.067294327988552782e-01,-2.700217534273506859e-01,0.000000000000000000e+00
4.045070773885453552e-01,-5.857690514151987493e-01,0.000000000000000000e+00
3.577596341218913234e-01,-3.440250263932525532e-01,0.000000000000000000e+00
2.678607047629412707e-01,-3.074450417093456053e-02,0.000000000000000000e+00
3.771944560402916424e-02,1.323580780956258628e-03,0.000000000000000000e+00
-1.924218135548829423e-01,2.578682603960828490e-01,0.000000000000000000e+00
-3.779565505748887222e-02,3.910741517347062213e-01,0.000000000000000000e+00
1.614370255788115729e-02,5.538813522596903738e-01,0.000000000000000000e+00
5.929518865017718160e-02,8.449608925922378333e-01,0.000000000000000000e+00
-1.836083313908854061e-03,8.696286502475383262e-01,0.000000000000000000e+00
-5.432040488266855725e-03,5.538813522596903738e-01,0.000000000000000000e+00
0.000000000000000000e+00,2.381340542718423381e-01,0.000000000000000000e+00
-7.375522680106889883e-02,1.323580780956258628e-03,0.000000000000000000e+00
-9.892692702157489248e-02,-2.827772840540449667e-02,0.000000000000000000e+00
-8.094714114978489305e-02,-8.543522281163994439e-03,0.000000000000000000e+00
-1.240986272420809000e-01,-4.307838299858487291e-02,0.000000000000000000e+00
-1.348864987651549052e-01,-2.334417687434437241e-02,0.000000000000000000e+00
-1.564622418113029434e-01,-6.281258912282537687e-02,0.000000000000000000e+00
-1.169067128933649058e-01,-2.334417687434437241e-02,0.000000000000000000e+00
-1.492703274625869214e-01,-7.267969218494563233e-02,0.000000000000000000e+00
-1.708460705087349318e-01,-4.801193452964499370e-02,0.000000000000000000e+00
-1.492703274625869214e-01,-7.761324371600575311e-02,0.000000000000000000e+00
-1.780379848574509538e-01,-8.748034677812600857e-02,0.000000000000000000e+00
-2.247854281241049301e-01,-8.748034677812600857e-02,0.000000000000000000e+00
-1.420784131138708994e-01,-9.734744984024626402e-02,0.000000000000000000e+00
-2.391692568215370018e-01,-1.318823105576671373e-01,0.000000000000000000e+00
-2.068056422523149585e-01,-1.170816559644867610e-01,0.000000000000000000e+00
-2.391692568215370018e-01,-1.466829651508475274e-01,0.000000000000000000e+00
-1.924218135548829423e-01,-1.910849289303886422e-01,0.000000000000000000e+00
-2.427652139958950128e-01,-1.614836197440279175e-01,0.000000000000000000e+00
-2.247854281241049301e-01,-2.206862381167494225e-01,0.000000000000000000e+00
-1.780379848574509538e-01,-2.256197896478095433e-01,0.000000000000000000e+00
-2.175935137753889637e-01,-2.305533411788696641e-01,0.000000000000000000e+00
-8.454309832414290404e-02,-2.601546503652304443e-01,0.000000000000000000e+00
-1.276945844164389110e-01,-2.749553049584108066e-01,0.000000000000000000e+00
-3.779565505748887222e-02,-2.404204442409899056e-01,0.000000000000000000e+00
-2.341182636005686643e-02,-2.502875473031102027e-01,0.000000000000000000e+00
4.850731712710316945e-02,-2.404204442409899056e-01,0.000000000000000000e+00
7.727497452196718797e-02,-2.206862381167494225e-01,0.000000000000000000e+00
1.132345462655472146e-01,-1.812178258682684007e-01,0.000000000000000000e+00
1.096385890911892036e-01,-1.713507228061481591e-01,0.000000000000000000e+00
1.671739038809172406e-01,-1.368158620887272581e-01,0.000000000000000000e+00
1.851536897527072678e-01,-8.254679524706588778e-02,0.000000000000000000e+00
1.707698610552752516e-01,-9.241389830918614323e-02,0.000000000000000000e+00
1.923456041014232620e-01,-4.307838299858487291e-02,0.000000000000000000e+00
1.707698610552752516e-01,-3.814483146752475212e-02,0.000000000000000000e+00
2.103253899732132892e-01,-3.321127993646462440e-02,0.000000000000000000e+00
1.240224177886212337e-01,-1.347707381222412043e-02,0.000000000000000000e+00
1.959415612757812730e-01,-3.321127993646462440e-02,0.000000000000000000e+00
1.527900751834852244e-01,-1.841062534328424469e-02,0.000000000000000000e+00
1.671739038809172406e-01,3.092488996731701523e-02,0.000000000000000000e+00
1.348102893116952250e-01,1.323580780956258628e-03,0.000000000000000000e+00
1.455981608347692302e-01,0.000000000000000000e+00,0.000000000000000000e+00
1.312143321373372140e-01,0.000000000000000000e+00,0.000000000000000000e+00
1.563860323578432354e-01,-1.347707381222412043e-02,0.000000000000000000e+00
1.599819895322012464e-01,1.612423537413663552e-02,0.000000000000000000e+00
1.312143321373372140e-01,2.599133843625689097e-02,0.000000000000000000e+00
1.743658182296332626e-01,1.119068384307650953e-02,0.000000000000000000e+00
1.455981608347692302e-01,1.119068384307650953e-02,0.000000000000000000e+00
1.420022036604112470e-01,2.599133843625689097e-02,0.000000000000000000e+00
1.312143321373372140e-01,3.092488996731701523e-02,0.000000000000000000e+00
1.599819895322012464e-01,1.119068384307650953e-02,0.000000000000000000e+00
1.024466747424731955e-01,1.323580780956258628e-03,0.000000000000000000e+00
1.599819895322012464e-01,4.572554456049739841e-02,0.000000000000000000e+00
1.240224177886212337e-01,1.119068384307650953e-02,0.000000000000000000e+00
1.132345462655472146e-01,1.612423537413663552e-02,0.000000000000000000e+00
1.312143321373372140e-01,1.612423537413663552e-02,0.000000000000000000e+00
1.096385890911892036e-01,-3.609970750103867580e-03,0.000000000000000000e+00
8.806284604504119318e-02,1.323580780956258628e-03,0.000000000000000000e+00
1.204264606142632227e-01,1.323580780956258628e-03,0.000000000000000000e+00
1.168305034399052117e-01,1.612423537413663552e-02,0.000000000000000000e+00
8.087093169632518508e-02,3.585844149837714295e-02,0.000000000000000000e+00
1.671739038809172406e-01,4.079199302943727068e-02,0.000000000000000000e+00
1.420022036604112470e-01,8.026040527791827861e-02,0.000000000000000000e+00
1.707698610552752516e-01,8.026040527791827861e-02,0.000000000000000000e+00
1.420022036604112470e-01,3.585844149837714295e-02,0.000000000000000000e+00
1.599819895322012464e-01,5.559264762261764692e-02,0.000000000000000000e+00
7.727497452196718797e-02,-8.543522281163994439e-03,0.000000000000000000e+00
1.491941180091272412e-01,0.000000000000000000e+00,0.000000000000000000e+00
9.165880321939919029e-02,-3.321127993646462440e-02,0.000000000000000000e+00
5.929518865017718160e-02,-8.543522281163994439e-03,0.000000000000000000e+00
6.289114582453517177e-02,-3.814483146752475212e-02,0.000000000000000000e+00
9.885071756811519839e-02,-2.334417687434437241e-02,0.000000000000000000e+00
8.951788209165152665e-03,-5.294548606070512142e-02,0.000000000000000000e+00
1.024466747424731955e-01,2.105778690519676324e-02,0.000000000000000000e+00
4.850731712710316945e-02,-1.841062534328424469e-02,0.000000000000000000e+00
4.131540277838716829e-02,0.000000000000000000e+00,0.000000000000000000e+00
5.929518865017718160e-02,-3.321127993646462440e-02,0.000000000000000000e+00
3.052753125531316308e-02,-1.347707381222412043e-02,0.000000000000000000e+00
7.008306017325117987e-02,-1.347707381222412043e-02,0.000000000000000000e+00
4.131540277838716829e-02,-8.543522281163994439e-03,0.000000000000000000e+00
4.491135995274516540e-02,-1.347707381222412043e-02,0.000000000000000000e+00
3.052753125531316308e-02,-2.334417687434437241e-02,0.000000000000000000e+00
5.210327430146116656e-02,-3.609970750103867580e-03,0.000000000000000000e+00
7.008306017325117987e-02,-3.609970750103867580e-03,0.000000000000000000e+00
8.087093169632518508e-02,9.012750834003853406e-02,1.927635024484003201e-01
0.000000000000000000e+00,0.000000000000000000e+00,1.927635024484003201e-01
0.000000000000000000e+00,0.000000000000000000e+00,1.927635024484003201e-01
0.000000000000000000e+00,0.000000000000000000e+00,1.927635024484003201e-01
0.000000000000000000e+00,0.000000000000000000e+00,1.927635024484003201e-01
0.000000000000000000e+00,0.000000000000000000e+00,1.927635024484003201e-01
0.000000000000000000e+00,0.000000000000000000e+00,1.927635024484003201e-01
0.000000000000000000e+00,0.000000000000000000e+00,1.927635024484003201e-01
0.000000000000000000e+00,0.000000000000000000e+00,1.927635024484003201e-01
0.000000000000000000e+00,0.000000000000000000e+00,1.927635024484003201e-01
0.000000000000000000e+00,0.000000000000000000e+00,1.927635024484003201e-01
0.000000000000000000e+00,0.000000000000000000e+00,1.927635024484003201e-01
0.000000000000000000e+00,0.000000000000000000e+00,1.927635024484003201e-01
0.000000000000000000e+00,0.000000000000000000e+00,1.927635024484003201e-01
0.000000000000000000e+00,0.000000000000000000e+00,1.927635024484003201e-01
0.000000000000000000e+00,0.000000000000000000e+00,1.927635024484003201e-01
0.000000000000000000e+00,0.000000000000000000e+00,1.927635024484003201e-01
0.000000000000000000e+00,0.000000000000000000e+00,1.927635024484003201e-01
0.000000000000000000e+00,0.000000000000000000e+00,1.927635024484003201e-01
0.000000000000000000e+00,0.000000000000000000e+00,1.927635024484003201e-01
0.000000000000000000e+00,0.000000000000000000e+00,1.927635024484003201e-01
0.000000000000000000e+00,0.000000000000000000e+00,1.927635024484003201e-01
0.000000000000000000e+00,0.000000000000000000e+00,1.927635024484003201e-01
0.000000000000000000e+00,0.000000000000000000e+00,1.927635024484003201e-01
0.000000000000000000e+00,0.000000000000000000e+00,1.927635024484003201e-01
0.000000000000000000e+00,0.000000000000000000e+00,1.927635024484003201e-01
0.000000000000000000e+00,0.000000000000000000e+00,1.927635024484003201e-01
0.000000000000000000e+00,0.000000000000000000e+00,1.927635024484003201e-01
0.000000000000000000e+00,0.000000000000000000e+00,1.927635024484003201e-01
0.000000000000000000e+00,0.000000000000000000e+00,1.927635024484003201e-01
0.000000000000000000e+00,0.000000000000000000e+00,1.927635024484003201e-01
0.000000000000000000e+00,0.000000000000000000e+00,1.927635024484003201e-01
0.000000000000000000e+00,0.000000000000000000e+00,1.927635024484003201e-01
0.000000000000000000e+00,0.000000000000000000e+00,1.927635024484003201e-01
0.000000000000000000e+00,0.000000000000000000e+00,1.927635024484003201e-01
0.000000000000000000e+00,0.000000000000000000e+00,1.927635024484003201e-01
0.000000000000000000e+00,0.000000000000000000e+00,1.927635024484003201e-01
0.000000000000000000e+00,0.000000000000000000e+00,1.927635024484003201e-01
0.000000000000000000e+00,0.000000000000000000e+00,1.927635024484003201e-01
0.000000000000000000e+00,0.000000000000000000e+00,1.927635024484003201e-01
0.000000000000000000e+00,0.000000000000000000e+00,1.927635024484003201e-01
0.000000000000000000e+00,0.000000000000000000e+00,1.927635024484003201e-01
0.000000000000000000e+00,0.000000000000000000e+00,1.927635024484003201e-01
0.000000000000000000e+00,0.000000000000000000e+00,1.927635024484003201e-01
0.000000000000000000e+00,0.000000000000000000e+00,1.927635024484003201e-01
0.000000000000000000e+00,0.000000000000000000e+00,1.927635024484003201e-01
0.000000000000000000e+00,0.000000000000000000e+00,1.927635024484003201e-01
0.000000000000000000e+00,0.000000000000000000e+00,1.927635024484003201e-01
0.000000000000000000e+00,0.000000000000000000e+00,1.927635024484003201e-01
0.000000000000000000e+00,0.000000000000000000e+00,1.927635024484003201e-01
0.000000000000000000e+00,0.000000000000000000e+00,1.927635024484003201e-01
0.000000000000000000e+00,0.000000000000000000e+00,1.927635024484003201e-01
0.000000000000000000e+00,0.000000000000000000e+00,1.927635024484003201e-01
0.000000000000000000e+00,0.000000000000000000e+00,1.927635024484003201e-01
0.000000000000000000e+00,0.000000000000000000e+00,1.927635024484003201e-01
0.000000000000000000e+00,0.000000000000000000e+00,1.927635024484003201e-01
