1.851536897527072678e-01,-1.347707381222412043e-02,0.000000000000000000e+00
3.829313343423973448e-01,-3.292243718000721908e-01,0.000000000000000000e+00
5.699211074090134721e-01,-5.364335361045974304e-01,0.000000000000000000e+00
3.829313343423973448e-01,-2.231530138822794551e-01,0.000000000000000000e+00
4.404666491321253541e-01,9.012750834003853406e-02,0.000000000000000000e+00
2.103253899732132892e-01,1.443965751816999321e-01,0.000000000000000000e+00
-1.981586918569886238e-02,3.614728425483454965e-01,0.000000000000000000e+00
1.060426319168311926e-01,5.045458369490891659e-01,0.000000000000000000e+00
1.599819895322012464e-01,7.413563104399750747e-01,0.000000000000000000e+00
3.412348842967116713e-02,9.238977170891997659e-01,0.000000000000000000e+00
3.412348842967116713e-02,7.610905165642155579e-01,0.000000000000000000e+00
7.367901734760917698e-02,4.453432185763676054e-01,0.000000000000000000e+00
-5.432040488266855725e-03,1.295959205885195420e-01,0.000000000000000000e+00
-1.240986272420809000e-01,-1.841062534328424469e-02,0.000000000000000000e+00
-1.169067128933649058e-01,-2.334417687434437241e-02,0.000000000000000000e+00
-1.780379848574509538e-01,-4.801193452964499370e-02,0.000000000000000000e+00
-1.384824559395129162e-01,-5.294548606070512142e-02,0.000000000000000000e+00
-1.672501133343769208e-01,-3.814483146752475212e-02,0.000000000000000000e+00
-1.780379848574509538e-01,-4.801193452964499370e-02,0.000000000000000000e+00
-2.355732996471789908e-01,-7.267969218494563233e-02,0.000000000000000000e+00
-1.816339420318089370e-01,-5.787903759176525609e-02,0.000000000000000000e+00
-2.211894709497469746e-01,-6.774614065388549766e-02,0.000000000000000000e+00
-2.355732996471789908e-01,-7.267969218494563233e-02,0.000000000000000000e+00
-2.607449998676850123e-01,-8.254679524706588778e-02,0.000000000000000000e+00
-2.859167000881909781e-01,-9.734744984024626402e-02,0.000000000000000000e+00
-2.787247857394750117e-01,-1.220152074955468957e-01,0.000000000000000000e+00
-3.182803146574130770e-01,-1.466829651508475274e-01,0.000000000000000000e+00
-2.967045716112650111e-01,-1.318823105576671373e-01,0.000000000000000000e+00
-3.003005287856230221e-01,-1.565500682129677967e-01,0.000000000000000000e+00
-2.859167000881909781e-01,-1.614836197440279175e-01,0.000000000000000000e+00
-2.751288285651170562e-01,-2.009520319925089116e-01,0.000000000000000000e+00
-2.355732996471789908e-01,-2.108191350546291531e-01,0.000000000000000000e+00
-2.283813852984629411e-01,-1.910849289303886422e-01,0.000000000000000000e+00
-1.133107557190069226e-01,-2.009520319925089116e-01,0.000000000000000000e+00
-1.169067128933649058e-01,-2.108191350546291531e-01,0.000000000000000000e+00
-1.025228841959329035e-01,-1.812178258682684007e-01,0.000000000000000000e+00
-2.341182636005686643e-02,-1.713507228061481591e-01,0.000000000000000000e+00
1.759873860449148036e-03,-1.318823105576671373e-01,0.000000000000000000e+00
8.951788209165152665e-03,-1.121481044334266264e-01,0.000000000000000000e+00
4.131540277838716829e-02,-9.734744984024626402e-02,0.000000000000000000e+00
5.569923147581917061e-02,-7.267969218494563233e-02,0.000000000000000000e+00
5.569923147581917061e-02,-4.801193452964499370e-02,0.000000000000000000e+00
1.096385890911892036e-01,-8.543522281163994439e-03,0.000000000000000000e+00
5.210327430146116656e-02,-8.543522281163994439e-03,0.000000000000000000e+00
7.727497452196718797e-02,0.000000000000000000e+00,0.000000000000000000e+00
4.850731712710316945e-02,0.000000000000000000e+00,0.000000000000000000e+00
1.024466747424731955e-01,1.612423537413663552e-02,0.000000000000000000e+00
1.614370255788115729e-02,3.092488996731701523e-02,0.000000000000000000e+00
4.491135995274516540e-02,2.105778690519676324e-02,0.000000000000000000e+00
3.771944560402916424e-02,0.000000000000000000e+00,0.000000000000000000e+00
4.131540277838716829e-02,1.119068384307650953e-02,0.000000000000000000e+00
3.771944560402916424e-02,2.599133843625689097e-02,0.000000000000000000e+00
2.693157408095516250e-02,1.119068384307650953e-02,0.000000000000000000e+00
4.131540277838716829e-02,4.079199302943727068e-02,0.000000000000000000e+00
4.131540277838716829e-02,1.612423537413663552e-02,0.000000000000000000e+00
-1.262395483698285949e-02,-3.609970750103867580e-03,0.000000000000000000e+00
7.727497452196718797e-02,4.079199302943727068e-02,0.000000000000000000e+00
1.759873860449148036e-03,3.585844149837714295e-02,0.000000000000000000e+00
4.491135995274516540e-02,2.599133843625689097e-02,0.000000000000000000e+00
0.000000000000000000e+00,2.105778690519676324e-02,0.000000000000000000e+00
-1.262395483698285949e-02,-3.609970750103867580e-03,0.000000000000000000e+00
2.693157408095516250e-02,2.599133843625689097e-02,0.000000000000000000e+00
1.254774538352315325e-02,3.092488996731701523e-02,0.000000000000000000e+00
-9.027997662624857172e-03,1.612423537413663552e-02,0.000000000000000000e+00
-1.836083313908854061e-03,1.323580780956258628e-03,0.000000000000000000e+00
-5.432040488266855725e-03,1.612423537413663552e-02,0.000000000000000000e+00
1.614370255788115729e-02,0.000000000000000000e+00,0.000000000000000000e+00
8.951788209165152665e-03,1.119068384307650953e-02,0.000000000000000000e+00
-2.341182636005686643e-02,1.119068384307650953e-02,0.000000000000000000e+00
-1.981586918569886238e-02,-3.609970750103867580e-03,0.000000000000000000e+00
-1.836083313908854061e-03,1.119068384307650953e-02,0.000000000000000000e+00
8.951788209165152665e-03,1.612423537413663552e-02,0.000000000000000000e+00
-1.621991201134086180e-02,1.612423537413663552e-02,0.000000000000000000e+00
-1.836083313908854061e-03,1.119068384307650953e-02,0.000000000000000000e+00
-2.700778353441486701e-02,2.599133843625689097e-02,0.000000000000000000e+00
1.759873860449148036e-03,0.000000000000000000e+00,0.000000000000000000e+00
-2.700778353441486701e-02,0.000000000000000000e+00,0.000000000000000000e+00
1.759873860449148036e-03,1.119068384307650953e-02,0.000000000000000000e+00
-1.262395483698285949e-02,2.105778690519676324e-02,0.000000000000000000e+00
-2.341182636005686643e-02,0.000000000000000000e+00,0.000000000000000000e+00
0.000000000000000000e+00,2.105778690519676324e-02,0.000000000000000000e+00
-3.419969788313087511e-02,1.119068384307650953e-02,0.000000000000000000e+00
1.254774538352315325e-02,1.323580780956258628e-03,0.000000000000000000e+00
-1.981586918569886238e-02,3.092488996731701523e-02,0.000000000000000000e+00
-9.027997662624857172e-03,1.612423537413663552e-02,0.000000000000000000e+00
0.000000000000000000e+00,2.105778690519676324e-02,0.000000000000000000e+00
-1.981586918569886238e-02,3.092488996731701523e-02,0.000000000000000000e+00
1.614370255788115729e-02,-1.841062534328424469e-02,0.000000000000000000e+00
-1.981586918569886238e-02,1.612423537413663552e-02,0.000000000000000000e+00
0.000000000000000000e+00,4.572554456049739841e-02,0.000000000000000000e+00
-9.027997662624857172e-03,2.105778690519676324e-02,0.000000000000000000e+00
1.254774538352315325e-02,1.612423537413663552e-02,0.000000000000000000e+00
-1.981586918569886238e-02,2.599133843625689097e-02,0.000000000000000000e+00
1.759873860449148036e-03,2.105778690519676324e-02,0.000000000000000000e+00
3.052753125531316308e-02,5.559264762261764692e-02,0.000000000000000000e+00
8.446688887068319607e-02,9.999461140215877564e-02,0.000000000000000000e+00
8.446688887068319607e-02,9.012750834003853406e-02,0.000000000000000000e+00
8.446688887068319607e-02,7.532685374685815782e-02,0.000000000000000000e+00
8.446688887068319607e-02,5.559264762261764692e-02,0.000000000000000000e+00
9.885071756811519839e-02,2.105778690519676324e-02,0.000000000000000000e+00
2.693157408095516250e-02,-8.543522281163994439e-03,0.000000000000000000e+00
1.973965973223915787e-02,1.323580780956258628e-03,0.000000000000000000e+00
-9.027997662624857172e-03,-1.841062534328424469e-02,0.000000000000000000e+00
-1.621991201134086180e-02,-4.307838299858487291e-02,0.000000000000000000e+00
-1.981586918569886238e-02,-1.841062534328424469e-02,0.000000000000000000e+00
-3.419969788313087511e-02,-4.307838299858487291e-02,0.000000000000000000e+00
8.951788209165152665e-03,1.119068384307650953e-02,0.000000000000000000e+00
-9.027997662624857172e-03,1.323580780956258628e-03,0.000000000000000000e+00
-2.700778353441486701e-02,-2.827772840540449667e-02,0.000000000000000000e+00
-3.779565505748887222e-02,-3.321127993646462440e-02,0.000000000000000000e+00
1.759873860449148036e-03,-8.543522281163994439e-03,0.000000000000000000e+00
-3.779565505748887222e-02,-8.543522281163994439e-03,0.000000000000000000e+00
-5.432040488266855725e-03,-1.347707381222412043e-02,0.000000000000000000e+00
-1.262395483698285949e-02,-3.609970750103867580e-03,0.000000000000000000e+00
1.254774538352315325e-02,-2.334417687434437241e-02,0.000000000000000000e+00
1.759873860449148036e-03,3.092488996731701523e-02,0.000000000000000000e+00
4.491135995274516540e-02,5.065909609155752613e-02,1.927635024484003201e-01
0.000000000000000000e+00,0.000000000000000000e+00,1.927635024484003201e-01
0.000000000000000000e+00,0.000000000000000000e+00,1.927635024484003201e-01
0.000000000000000000e+00,0.000000000000000000e+00,1.927635024484003201e-01
0.000000000000000000e+00,0.000000000000000000e+00,1.927635024484003201e-01
0.000000000000000000e+00,0.000000000000000000e+00,1.927635024484003201e-01
0.000000000000000000e+00,0.000000000000000000e+00,1.927635024484003201e-01
0.000000000000000000e+00,0.000000000000000000e+00,1.927635024484003201e-01
0.000000000000000000e+00,0.000000000000000000e+00,1.927635024484003201e-01
0.000000000000000000e+00,0.000000000000000000e+00,1.927635024484003201e-01
0.000000000000000000e+00,0.000000000000000000e+00,1.927635024484003201e-01
0.000000000000000000e+00,0.000000000000000000e+00,1.927635024484003201e-01
0.000000000000000000e+00,0.000000000000000000e+00,1.927635024484003201e-01
0.000000000000000000e+00,0.000000000000000000e+00,1.927635024484003201e-01
0.000000000000000000e+00,0.000000000000000000e+00,1.927635024484003201e-01
0.000000000000000000e+00,0.000000000000000000e+00,1.927635024484003201e-01
0.000000000000000000e+00,0.000000000000000000e+00,1.927635024484003201e-01
0.000000000000000000e+00,0.000000000000000000e+00,1.927635024484003201e-01
0.000000000000000000e+00,0.000000000000000000e+00,1.927635024484003201e-01
0.000000000000000000e+00,0.000000000000000000e+00,1.927635024484003201e-01
0.000000000000000000e+00,0.000000000000000000e+00,1.927635024484003201e-01
0.000000000000000000e+00,0.000000000000000000e+00,1.927635024484003201e-01
0.000000000000000000e+00,0.000000000000000000e+00,1.927635024484003201e-01
0.000000000000000000e+00,0.000000000000000000e+00,1.927635024484003201e-01
0.000000000000000000e+00,0.000000000000000000e+00,1.927635024484003201e-01
0.000000000000000000e+00,0.000000000000000000e+00,1.927635024484003201e-01
0.000000000000000000e+00,0.000000000000000000e+00,1.927635024484003201e-01
0.000000000000000000e+00,0.000000000000000000e+00,1.927635024484003201e-01
0.000000000000000000e+00,0.000000000000000000e+00,1.927635024484003201e-01
0.000000000000000000e+00,0.000000000000000000e+00,1.927635024484003201e-01
0.000000000000000000e+00,0.000000000000000000e+00,1.927635024484003201e-01
0.000000000000000000e+00,0.000000000000000000e+00,1.927635024484003201e-01
0.000000000000000000e+00,0.000000000000000000e+00,1.927635024484003201e-01
0.000000000000000000e+00,0.000000000000000000e+00,1.927635024484003201e-01
0.000000000000000000e+00,0.000000000000000000e+00,1.927635024484003201e-01
0.000000000000000000e+00,0.000000000000000000e+00,1.927635024484003201e-01
