7.008306017325117987e-02,5.559264762261764692e-02,0.000000000000000000e+00
1.276183749629792308e-01,-7.267969218494563233e-02,0.000000000000000000e+00
2.894364478090892812e-01,-3.884269901727937513e-01,0.000000000000000000e+00
5.177797283808224238e-01,-4.130947478280942997e-01,0.000000000000000000e+00
2.876384692219102757e-01,-9.981422560577633829e-02,0.000000000000000000e+00
2.354970901937192551e-01,1.197288175263992865e-01,0.000000000000000000e+00
0.000000000000000000e+00,2.726689149892632114e-01,0.000000000000000000e+00
7.727497452196718797e-02,4.601438731695480233e-01,0.000000000000000000e+00
1.060426319168311926e-01,5.736155583839309680e-01,0.000000000000000000e+00
1.060426319168311926e-01,8.252266864679972391e-01,0.000000000000000000e+00
1.240224177886212337e-01,8.696286502475383262e-01,0.000000000000000000e+00
3.412348842967116713e-02,5.538813522596903738e-01,0.000000000000000000e+00
3.771944560402916424e-02,2.381340542718423381e-01,0.000000000000000000e+00
-9.892692702157489248e-02,3.585844149837714295e-02,0.000000000000000000e+00
-1.133107557190069226e-01,1.119068384307650953e-02,0.000000000000000000e+00
-1.384824559395129162e-01,2.105778690519676324e-02,0.000000000000000000e+00
-1.312905415907969220e-01,-8.543522281163994439e-03,0.000000000000000000e+00
-1.816339420318089370e-01,-2.334417687434437241e-02,0.000000000000000000e+00
-1.492703274625869214e-01,1.323580780956258628e-03,0.000000000000000000e+00
-1.888258563805249590e-01,-1.347707381222412043e-02,0.000000000000000000e+00
-1.636541561600189376e-01,-3.321127993646462440e-02,0.000000000000000000e+00
-2.032096850779569475e-01,-2.334417687434437241e-02,0.000000000000000000e+00
-2.032096850779569475e-01,-3.814483146752475212e-02,0.000000000000000000e+00
-2.032096850779569475e-01,-2.827772840540449667e-02,0.000000000000000000e+00
-2.247854281241049301e-01,-2.334417687434437241e-02,0.000000000000000000e+00
-2.535530855189689903e-01,-5.294548606070512142e-02,0.000000000000000000e+00
-2.355732996471789908e-01,-7.267969218494563233e-02,0.000000000000000000e+00
-2.643409570420430232e-01,-4.307838299858487291e-02,0.000000000000000000e+00
-2.751288285651170562e-01,-1.072145529023665056e-01,0.000000000000000000e+00
-2.643409570420430232e-01,-7.761324371600575311e-02,0.000000000000000000e+00
-3.003005287856230221e-01,-1.072145529023665056e-01,0.000000000000000000e+00
-3.038964859599810331e-01,-1.368158620887272581e-01,0.000000000000000000e+00
-3.182803146574130770e-01,-1.368158620887272581e-01,0.000000000000000000e+00
-3.254722290061290435e-01,-1.565500682129677967e-01,0.000000000000000000e+00
-3.398560577035610319e-01,-1.960184804614487630e-01,0.000000000000000000e+00
-2.823207429138330227e-01,-2.009520319925089116e-01,0.000000000000000000e+00
-3.074924431343390441e-01,-2.058855835235690046e-01,0.000000000000000000e+00
-2.787247857394750117e-01,-2.157526865856893017e-01,0.000000000000000000e+00
-2.355732996471789908e-01,-2.256197896478095433e-01,0.000000000000000000e+00
-1.456743702882289104e-01,-2.009520319925089116e-01,0.000000000000000000e+00
-1.169067128933649058e-01,-2.108191350546291531e-01,0.000000000000000000e+00
-7.375522680106889883e-02,-1.614836197440279175e-01,0.000000000000000000e+00
1.759873860449148036e-03,-1.664171712750880383e-01,0.000000000000000000e+00
2.333561690659716192e-02,-1.220152074955468957e-01,0.000000000000000000e+00
8.087093169632518508e-02,-1.121481044334266264e-01,0.000000000000000000e+00
7.727497452196718797e-02,-5.787903759176525609e-02,0.000000000000000000e+00
1.060426319168311926e-01,-5.787903759176525609e-02,0.000000000000000000e+00
1.204264606142632227e-01,-3.609970750103867580e-03,0.000000000000000000e+00
1.024466747424731955e-01,0.000000000000000000e+00,0.000000000000000000e+00
1.168305034399052117e-01,1.323580780956258628e-03,0.000000000000000000e+00
1.096385890911892036e-01,2.105778690519676324e-02,0.000000000000000000e+00
8.446688887068319607e-02,4.572554456049739841e-02,0.000000000000000000e+00
7.008306017325117987e-02,2.599133843625689097e-02,0.000000000000000000e+00
6.289114582453517177e-02,3.585844149837714295e-02,0.000000000000000000e+00
6.289114582453517177e-02,2.599133843625689097e-02,0.000000000000000000e+00
7.367901734760917698e-02,5.065909609155752613e-02,0.000000000000000000e+00
6.648710299889318276e-02,2.599133843625689097e-02,0.000000000000000000e+00
5.210327430146116656e-02,7.039330221579802316e-02,0.000000000000000000e+00
4.850731712710316945e-02,1.612423537413663552e-02,0.000000000000000000e+00
7.367901734760917698e-02,4.079199302943727068e-02,0.000000000000000000e+00
4.491135995274516540e-02,4.572554456049739841e-02,0.000000000000000000e+00
6.289114582453517177e-02,4.079199302943727068e-02,0.000000000000000000e+00
2.693157408095516250e-02,3.092488996731701523e-02,0.000000000000000000e+00
7.367901734760917698e-02,2.599133843625689097e-02,0.000000000000000000e+00
5.210327430146116656e-02,3.092488996731701523e-02,0.000000000000000000e+00
4.491135995274516540e-02,4.572554456049739841e-02,0.000000000000000000e+00
3.052753125531316308e-02,2.599133843625689097e-02,0.000000000000000000e+00
5.210327430146116656e-02,2.105778690519676324e-02,0.000000000000000000e+00
3.412348842967116713e-02,2.599133843625689097e-02,0.000000000000000000e+00
2.693157408095516250e-02,3.092488996731701523e-02,0.000000000000000000e+00
2.693157408095516250e-02,4.079199302943727068e-02,0.000000000000000000e+00
2.693157408095516250e-02,3.092488996731701523e-02,0.000000000000000000e+00
8.951788209165152665e-03,3.585844149837714295e-02,0.000000000000000000e+00
1.759873860449148036e-03,2.105778690519676324e-02,0.000000000000000000e+00
3.052753125531316308e-02,3.092488996731701523e-02,0.000000000000000000e+00
0.000000000000000000e+00,3.092488996731701523e-02,0.000000000000000000e+00
1.759873860449148036e-03,3.585844149837714295e-02,0.000000000000000000e+00
0.000000000000000000e+00,0.000000000000000000e+00,0.000000000000000000e+00
-1.262395483698285949e-02,4.572554456049739841e-02,0.000000000000000000e+00
-1.262395483698285949e-02,4.079199302943727068e-02,0.000000000000000000e+00
2.693157408095516250e-02,2.599133843625689097e-02,0.000000000000000000e+00
8.951788209165152665e-03,5.065909609155752613e-02,0.000000000000000000e+00
4.850731712710316945e-02,8.026040527791827861e-02,0.000000000000000000e+00
9.525476039375720128e-02,1.098617144642790450e-01,0.000000000000000000e+00
6.648710299889318276e-02,1.098617144642790450e-01,0.000000000000000000e+00
6.289114582453517177e-02,7.532685374685815782e-02,0.000000000000000000e+00
3.052753125531316308e-02,4.572554456049739841e-02,0.000000000000000000e+00
3.052753125531316308e-02,4.572554456049739841e-02,0.000000000000000000e+00
1.614370255788115729e-02,-1.347707381222412043e-02,0.000000000000000000e+00
-3.060374070877287106e-02,4.079199302943727068e-02,0.000000000000000000e+00
-2.700778353441486701e-02,-3.609970750103867580e-03,0.000000000000000000e+00
-1.981586918569886238e-02,1.119068384307650953e-02,0.000000000000000000e+00
-5.217948375492088148e-02,-2.827772840540449667e-02,0.000000000000000000e+00
-5.577544092927888553e-02,3.585844149837714295e-02,0.000000000000000000e+00
-3.060374070877287106e-02,2.599133843625689097e-02,0.000000000000000000e+00
-5.217948375492088148e-02,2.105778690519676324e-02,0.000000000000000000e+00
-7.015926962671088785e-02,4.079199302943727068e-02,0.000000000000000000e+00
-4.858352658056287743e-02,2.105778690519676324e-02,0.000000000000000000e+00
-4.858352658056287743e-02,3.585844149837714295e-02,0.000000000000000000e+00
-3.779565505748887222e-02,2.105778690519676324e-02,0.000000000000000000e+00
-5.937139810363688264e-02,3.092488996731701523e-02,0.000000000000000000e+00
-4.858352658056287743e-02,0.000000000000000000e+00,0.000000000000000000e+00
-4.498756940620488032e-02,5.065909609155752613e-02,0.000000000000000000e+00
-4.139161223184688321e-02,2.599133843625689097e-02,0.000000000000000000e+00
-1.262395483698285949e-02,1.049281629332189242e-01,1.927635024484003201e-01
0.000000000000000000e+00,0.000000000000000000e+00,1.927635024484003201e-01
0.000000000000000000e+00,0.000000000000000000e+00,1.927635024484003201e-01
0.000000000000000000e+00,0.000000000000000000e+00,1.927635024484003201e-01
0.000000000000000000e+00,0.000000000000000000e+00,1.927635024484003201e-01
0.000000000000000000e+00,0.000000000000000000e+00,1.927635024484003201e-01
0.000000000000000000e+00,0.000000000000000000e+00,1.927635024484003201e-01
0.000000000000000000e+00,0.000000000000000000e+00,1.927635024484003201e-01
0.000000000000000000e+00,0.000000000000000000e+00,1.927635024484003201e-01
0.000000000000000000e+00,0.000000000000000000e+00,1.927635024484003201e-01
0.000000000000000000e+00,0.000000000000000000e+00,1.927635024484003201e-01
0.000000000000000000e+00,0.000000000000000000e+00,1.927635024484003201e-01
0.000000000000000000e+00,0.000000000000000000e+00,1.927635024484003201e-01
0.000000000000000000e+00,0.000000000000000000e+00,1.927635024484003201e-01
0.000000000000000000e+00,0.000000000000000000e+00,1.927635024484003201e-01
0.000000000000000000e+00,0.000000000000000000e+00,1.927635024484003201e-01
0.000000000000000000e+00,0.000000000000000000e+00,1.927635024484003201e-01
0.000000000000000000e+00,0.000000000000000000e+00,1.927635024484003201e-01
0.000000000000000000e+00,0.000000000000000000e+00,1.927635024484003201e-01
0.000000000000000000e+00,0.000000000000000000e+00,1.927635024484003201e-01
0.000000000000000000e+00,0.000000000000000000e+00,1.927635024484003201e-01
0.000000000000000000e+00,0.000000000000000000e+00,1.927635024484003201e-01
0.000000000000000000e+00,0.000000000000000000e+00,1.927635024484003201e-01
0.000000000000000000e+00,0.000000000000000000e+00,1.927635024484003201e-01
0.000000000000000000e+00,0.000000000000000000e+00,1.927635024484003201e-01
0.000000000000000000e+00,0.000000000000000000e+00,1.927635024484003201e-01
0.000000000000000000e+00,0.000000000000000000e+00,1.927635024484003201e-01
0.000000000000000000e+00,0.000000000000000000e+00,1.927635024484003201e-01
0.000000000000000000e+00,0.000000000000000000e+00,1.927635024484003201e-01
0.000000000000000000e+00,0.000000000000000000e+00,1.927635024484003201e-01
0.000000000000000000e+00,0.000000000000000000e+00,1.927635024484003201e-01
0.000000000000000000e+00,0.000000000000000000e+00,1.927635024484003201e-01
0.000000000000000000e+00,0.000000000000000000e+00,1.927635024484003201e-01
0.000000000000000000e+00,0.000000000000000000e+00,1.927635024484003201e-01
0.000000000000000000e+00,0.000000000000000000e+00,1.927635024484003201e-01
0.000000000000000000e+00,0.000000000000000000e+00,1.927635024484003201e-01
0.000000000000000000e+00,0.000000000000000000e+00,1.927635024484003201e-01
0.000000000000000000e+00,0.000000000000000000e+00,1.927635024484003201e-01
0.000000000000000000e+00,0.000000000000000000e+00,1.927635024484003201e-01
0.000000000000000000e+00,0.000000000000000000e+00,1.927635024484003201e-01
0.000000000000000000e+00,0.000000000000000000e+00,1.927635024484003201e-01
0.000000000000000000e+00,0.000000000000000000e+00,1.927635024484003201e-01
0.000000000000000000e+00,0.000000000000000000e+00,1.927635024484003201e-01
0.000000000000000000e+00,0.000000000000000000e+00,1.927635024484003201e-01
0.000000000000000000e+00,0.000000000000000000e+00,1.927635024484003201e-01
0.000000000000000000e+00,0.000000000000000000e+00,1.927635024484003201e-01
0.000000000000000000e+00,0.000000000000000000e+00,1.927635024484003201e-01
0.000000000000000000e+00,0.000000000000000000e+00,1.927635024484003201e-01
