1.707698610552752516e-01,5.559264762261764692e-02,0.000000000000000000e+00
3.685475056449653564e-01,-1.121481044334266264e-01,0.000000000000000000e+00
5.968907862166984435e-01,-2.897559595515911690e-01,0.000000000000000000e+00
6.490321652448894918e-01,2.352456267072682711e-02,0.000000000000000000e+00
5.914968504551614270e-01,1.542636782438201737e-01,0.000000000000000000e+00
3.613555912962493344e-01,1.345294721195796628e-01,0.000000000000000000e+00
1.312143321373372140e-01,3.220044302998644747e-01,0.000000000000000000e+00
2.333561690659716192e-02,4.897451823559088036e-01,0.000000000000000000e+00
8.087093169632518508e-02,5.933497645081714511e-01,0.000000000000000000e+00
-8.813905549850090115e-02,8.054924803437568670e-01,0.000000000000000000e+00
5.210327430146116656e-02,6.278846252255922966e-01,0.000000000000000000e+00
-5.432040488266855725e-03,3.121373272377442332e-01,0.000000000000000000e+00
-7.735118397542689594e-02,-3.609970750103867580e-03,0.000000000000000000e+00
-1.744420276830929428e-01,-6.281258912282537687e-02,0.000000000000000000e+00
-1.744420276830929428e-01,-8.254679524706588778e-02,0.000000000000000000e+00
-1.960177707292409255e-01,-9.734744984024626402e-02,0.000000000000000000e+00
-2.104015994266729694e-01,-1.121481044334266264e-01,0.000000000000000000e+00
-1.852298992061669480e-01,-9.734744984024626402e-02,0.000000000000000000e+00
-2.931086144369070001e-01,-1.170816559644867610e-01,0.000000000000000000e+00
-3.326641433548450655e-01,-1.614836197440279175e-01,0.000000000000000000e+00
-2.715328713907590452e-01,-1.466829651508475274e-01,0.000000000000000000e+00
-4.297549870625111401e-01,-1.220152074955468957e-01,0.000000000000000000e+00
-3.901994581445730748e-01,-1.614836197440279175e-01,0.000000000000000000e+00
-4.441388157599431286e-01,-2.157526865856893017e-01,0.000000000000000000e+00
-5.196539164214610818e-01,-2.108191350546291531e-01,0.000000000000000000e+00
-5.340377451188931257e-01,-2.354868927099298126e-01,0.000000000000000000e+00
-4.800983875035231274e-01,-2.601546503652304443e-01,0.000000000000000000e+00
-4.693105159804490945e-01,-2.650882018962905651e-01,0.000000000000000000e+00
-4.333509442368691511e-01,-2.897559595515911690e-01,0.000000000000000000e+00
-3.901994581445730748e-01,-2.650882018962905651e-01,0.000000000000000000e+00
-2.895126572625489891e-01,-2.749553049584108066e-01,0.000000000000000000e+00
-1.672501133343769208e-01,-2.798888564894709274e-01,0.000000000000000000e+00
-1.492703274625869214e-01,-2.552210988341702680e-01,0.000000000000000000e+00
-7.375522680106889883e-02,-1.861513773993285215e-01,0.000000000000000000e+00
5.569923147581917061e-02,-1.910849289303886422e-01,0.000000000000000000e+00
1.973965973223915787e-02,-1.170816559644867610e-01,0.000000000000000000e+00
1.348102893116952250e-01,-7.761324371600575311e-02,0.000000000000000000e+00
1.132345462655472146e-01,-8.254679524706588778e-02,0.000000000000000000e+00
1.096385890911892036e-01,-5.294548606070512142e-02,0.000000000000000000e+00
1.132345462655472146e-01,-2.334417687434437241e-02,0.000000000000000000e+00
1.348102893116952250e-01,1.323580780956258628e-03,0.000000000000000000e+00
1.384062464860532360e-01,2.599133843625689097e-02,0.000000000000000000e+00
1.060426319168311926e-01,3.585844149837714295e-02,0.000000000000000000e+00
9.165880321939919029e-02,4.079199302943727068e-02,0.000000000000000000e+00
1.096385890911892036e-01,6.052619915367778158e-02,0.000000000000000000e+00
1.168305034399052117e-01,8.519395680897841328e-02,0.000000000000000000e+00
1.168305034399052117e-01,6.052619915367778158e-02,0.000000000000000000e+00
1.060426319168311926e-01,8.026040527791827861e-02,0.000000000000000000e+00
1.168305034399052117e-01,9.506105987109865485e-02,0.000000000000000000e+00
1.168305034399052117e-01,1.443965751816999321e-01,0.000000000000000000e+00
1.779617754039912458e-01,1.739978843680606846e-01,0.000000000000000000e+00
1.851536897527072678e-01,1.690643328370005360e-01,0.000000000000000000e+00
2.570728332398672933e-01,1.641307813059404153e-01,0.000000000000000000e+00
3.002243193321632586e-01,8.519395680897841328e-02,0.000000000000000000e+00
2.930324049834472921e-01,3.585844149837714295e-02,0.000000000000000000e+00
2.319011330193612441e-01,1.612423537413663552e-02,0.000000000000000000e+00
1.959415612757812730e-01,3.585844149837714295e-02,0.000000000000000000e+00
2.031334756244972672e-01,2.599133843625689097e-02,0.000000000000000000e+00
1.779617754039912458e-01,4.572554456049739841e-02,0.000000000000000000e+00
2.247092186706452777e-01,3.585844149837714295e-02,0.000000000000000000e+00
1.527900751834852244e-01,3.585844149837714295e-02,0.000000000000000000e+00
1.563860323578432354e-01,4.079199302943727068e-02,0.000000000000000000e+00
1.096385890911892036e-01,4.079199302943727068e-02,0.000000000000000000e+00
1.420022036604112470e-01,4.079199302943727068e-02,0.000000000000000000e+00
7.727497452196718797e-02,5.065909609155752613e-02,0.000000000000000000e+00
1.204264606142632227e-01,6.052619915367778158e-02,0.000000000000000000e+00
9.885071756811519839e-02,6.545975068473790237e-02,0.000000000000000000e+00
9.885071756811519839e-02,4.079199302943727068e-02,0.000000000000000000e+00
8.087093169632518508e-02,1.246623690574594212e-01,1.927635024484003201e-01
0.000000000000000000e+00,0.000000000000000000e+00,1.927635024484003201e-01
0.000000000000000000e+00,0.000000000000000000e+00,1.927635024484003201e-01
0.000000000000000000e+00,0.000000000000000000e+00,1.927635024484003201e-01
0.000000000000000000e+00,0.000000000000000000e+00,1.927635024484003201e-01
0.000000000000000000e+00,0.000000000000000000e+00,1.927635024484003201e-01
0.000000000000000000e+00,0.000000000000000000e+00,1.927635024484003201e-01
0.000000000000000000e+00,0.000000000000000000e+00,1.927635024484003201e-01
0.000000000000000000e+00,0.000000000000000000e+00,1.927635024484003201e-01
0.000000000000000000e+00,0.000000000000000000e+00,1.927635024484003201e-01
0.000000000000000000e+00,0.000000000000000000e+00,1.927635024484003201e-01
0.000000000000000000e+00,0.000000000000000000e+00,1.927635024484003201e-01
0.000000000000000000e+00,0.000000000000000000e+00,1.927635024484003201e-01
0.000000000000000000e+00,0.000000000000000000e+00,1.927635024484003201e-01
0.000000000000000000e+00,0.000000000000000000e+00,1.927635024484003201e-01
0.000000000000000000e+00,0.000000000000000000e+00,1.927635024484003201e-01
0.000000000000000000e+00,0.000000000000000000e+00,1.927635024484003201e-01
0.000000000000000000e+00,0.000000000000000000e+00,1.927635024484003201e-01
0.000000000000000000e+00,0.000000000000000000e+00,1.927635024484003201e-01
0.000000000000000000e+00,0.000000000000000000e+00,1.927635024484003201e-01
0.000000000000000000e+00,0.000000000000000000e+00,1.927635024484003201e-01
0.000000000000000000e+00,0.000000000000000000e+00,1.927635024484003201e-01
0.000000000000000000e+00,0.000000000000000000e+00,1.927635024484003201e-01
0.000000000000000000e+00,0.000000000000000000e+00,1.927635024484003201e-01
0.000000000000000000e+00,0.000000000000000000e+00,1.927635024484003201e-01
0.000000000000000000e+00,0.000000000000000000e+00,1.927635024484003201e-01
0.000000000000000000e+00,0.000000000000000000e+00,1.927635024484003201e-01
0.000000000000000000e+00,0.000000000000000000e+00,1.927635024484003201e-01
0.000000000000000000e+00,0.000000000000000000e+00,1.927635024484003201e-01
0.000000000000000000e+00,0.000000000000000000e+00,1.927635024484003201e-01
0.000000000000000000e+00,0.000000000000000000e+00,1.927635024484003201e-01
0.000000000000000000e+00,0.000000000000000000e+00,1.927635024484003201e-01
0.000000000000000000e+00,0.000000000000000000e+00,1.927635024484003201e-01
0.000000000000000000e+00,0.000000000000000000e+00,1.927635024484003201e-01
0.000000000000000000e+00,0.000000000000000000e+00,1.927635024484003201e-01
0.000000000000000000e+00,0.000000000000000000e+00,1.927635024484003201e-01
0.000000000000000000e+00,0.000000000000000000e+00,1.927635024484003201e-01
0.000000000000000000e+00,0.000000000000000000e+00,1.927635024484003201e-01
0.000000000000000000e+00,0.000000000000000000e+00,1.927635024484003201e-01
0.000000000000000000e+00,0.000000000000000000e+00,1.927635024484003201e-01
0.000000000000000000e+00,0.000000000000000000e+00,1.927635024484003201e-01
0.000000000000000000e+00,0.000000000000000000e+00,1.927635024484003201e-01
0.000000000000000000e+00,0.000000000000000000e+00,1.927635024484003201e-01
0.000000000000000000e+00,0.000000000000000000e+00,1.927635024484003201e-01
0.000000000000000000e+00,0.000000000000000000e+00,1.927635024484003201e-01
0.000000000000000000e+00,0.000000000000000000e+00,1.927635024484003201e-01
0.000000000000000000e+00,0.000000000000000000e+00,1.927635024484003201e-01
0.000000000000000000e+00,0.000000000000000000e+00,1.927635024484003201e-01
0.000000000000000000e+00,0.000000000000000000e+00,1.927635024484003201e-01
0.000000000000000000e+00,0.000000000000000000e+00,1.927635024484003201e-01
0.000000000000000000e+00,0.000000000000000000e+00,1.927635024484003201e-01
0.000000000000000000e+00,0.000000000000000000e+00,1.927635024484003201e-01
0.000000000000000000e+00,0.000000000000000000e+00,1.927635024484003201e-01
0.000000000000000000e+00,0.000000000000000000e+00,1.927635024484003201e-01
0.000000000000000000e+00,0.000000000000000000e+00,1.927635024484003201e-01
0.000000000000000000e+00,0.000000000000000000e+00,1.927635024484003201e-01
0.000000000000000000e+00,0.000000000000000000e+00,1.927635024484003201e-01
0.000000000000000000e+00,0.000000000000000000e+00,1.927635024484003201e-01
0.000000000000000000e+00,0.000000000000000000e+00,1.927635024484003201e-01
0.000000000000000000e+00,0.000000000000000000e+00,1.927635024484003201e-01
0.000000000000000000e+00,0.000000000000000000e+00,1.927635024484003201e-01
0.000000000000000000e+00,0.000000000000000000e+00,1.927635024484003201e-01
0.000000000000000000e+00,0.000000000000000000e+00,1.927635024484003201e-01
0.000000000000000000e+00,0.000000000000000000e+00,1.927635024484003201e-01
0.000000000000000000e+00,0.000000000000000000e+00,1.927635024484003201e-01
0.000000000000000000e+00,0.000000000000000000e+00,1.927635024484003201e-01
0.000000000000000000e+00,0.000000000000000000e+00,1.927635024484003201e-01
0.000000000000000000e+00,0.000000000000000000e+00,1.927635024484003201e-01
0.000000000000000000e+00,0.000000000000000000e+00,1.927635024484003201e-01
0.000000000000000000e+00,0.000000000000000000e+00,1.927635024484003201e-01
0.000000000000000000e+00,0.000000000000000000e+00,1.927635024484003201e-01
0.000000000000000000e+00,0.000000000000000000e+00,1.927635024484003201e-01
0.000000000000000000e+00,0.000000000000000000e+00,1.927635024484003201e-01
0.000000000000000000e+00,0.000000000000000000e+00,1.927635024484003201e-01
0.000000000000000000e+00,0.000000000000000000e+00,1.927635024484003201e-01
0.000000000000000000e+00,0.000000000000000000e+00,1.927635024484003201e-01
0.000000000000000000e+00,0.000000000000000000e+00,1.927635024484003201e-01
0.000000000000000000e+00,0.000000000000000000e+00,1.927635024484003201e-01
0.000000000000000000e+00,0.000000000000000000e+00,1.927635024484003201e-01
0.000000000000000000e+00,0.000000000000000000e+00,1.927635024484003201e-01
0.000000000000000000e+00,0.000000000000000000e+00,1.927635024484003201e-01
0.000000000000000000e+00,0.000000000000000000e+00,1.927635024484003201e-01
0.000000000000000000e+00,0.000000000000000000e+00,1.927635024484003201e-01
0.000000000000000000e+00,0.000000000000000000e+00,1.927635024484003201e-01
