8.087093169632518508e-02,6.772201405361935045e-01,0.000000000000000000e+00
1.240224177886212337e-01,9.041635109649591717e-01,0.000000000000000000e+00
8.951788209165152665e-03,8.153595834058769976e-01,0.000000000000000000e+00
1.973965973223915787e-02,4.996122854180289896e-01,0.000000000000000000e+00
-1.621991201134086180e-02,1.838649874301809262e-01,0.000000000000000000e+00
-2.341182636005686643e-02,3.585844149837714295e-02,0.000000000000000000e+00
-4.139161223184688321e-02,-3.609970750103867580e-03,0.000000000000000000e+00
-1.097147985446489116e-01,-1.841062534328424469e-02,0.000000000000000000e+00
-1.133107557190069226e-01,1.612423537413663552e-02,0.000000000000000000e+00
-3.779565505748887222e-02,1.119068384307650953e-02,0.000000000000000000e+00
-1.528662846369449324e-01,2.105778690519676324e-02,0.000000000000000000e+00
-1.348864987651549052e-01,-4.307838299858487291e-02,0.000000000000000000e+00
-1.312905415907969220e-01,-4.801193452964499370e-02,0.000000000000000000e+00
-1.169067128933649058e-01,-2.827772840540449667e-02,0.000000000000000000e+00
-1.852298992061669480e-01,-8.543522281163994439e-03,0.000000000000000000e+00
-1.816339420318089370e-01,-3.814483146752475212e-02,0.000000000000000000e+00
-2.104015994266729694e-01,-2.334417687434437241e-02,0.000000000000000000e+00
-2.139975566010309804e-01,-4.801193452964499370e-02,0.000000000000000000e+00
-2.247854281241049301e-01,-8.254679524706588778e-02,0.000000000000000000e+00
-2.679369142164010342e-01,-7.267969218494563233e-02,0.000000000000000000e+00
-2.139975566010309804e-01,-1.417494136197874066e-01,0.000000000000000000e+00
-2.715328713907590452e-01,-1.466829651508475274e-01,0.000000000000000000e+00
-2.247854281241049301e-01,-1.368158620887272581e-01,0.000000000000000000e+00
-2.679369142164010342e-01,-1.762842743372082799e-01,0.000000000000000000e+00
-2.895126572625489891e-01,-1.910849289303886422e-01,0.000000000000000000e+00
-2.355732996471789908e-01,-1.713507228061481591e-01,0.000000000000000000e+00
-2.355732996471789908e-01,-2.354868927099298126e-01,0.000000000000000000e+00
-2.211894709497469746e-01,-2.354868927099298126e-01,0.000000000000000000e+00
-8.094714114978489305e-02,-2.009520319925089116e-01,0.000000000000000000e+00
-1.133107557190069226e-01,-2.256197896478095433e-01,0.000000000000000000e+00
-5.217948375492088148e-02,-2.058855835235690046e-01,0.000000000000000000e+00
-1.981586918569886238e-02,-2.206862381167494225e-01,0.000000000000000000e+00
-2.341182636005686643e-02,-1.713507228061481591e-01,0.000000000000000000e+00
1.923456041014232620e-01,-1.121481044334266264e-01,0.000000000000000000e+00
8.087093169632518508e-02,-1.072145529023665056e-01,0.000000000000000000e+00
1.132345462655472146e-01,-9.734744984024626402e-02,0.000000000000000000e+00
1.455981608347692302e-01,-6.281258912282537687e-02,0.000000000000000000e+00
1.635779467065592574e-01,-5.294548606070512142e-02,0.000000000000000000e+00
1.384062464860532360e-01,-4.307838299858487291e-02,0.000000000000000000e+00
1.312143321373372140e-01,1.119068384307650953e-02,0.000000000000000000e+00
1.923456041014232620e-01,1.323580780956258628e-03,0.000000000000000000e+00
8.087093169632518508e-02,1.119068384307650953e-02,0.000000000000000000e+00
2.139213471475712447e-01,5.065909609155752613e-02,0.000000000000000000e+00
8.806284604504119318e-02,5.559264762261764692e-02,0.000000000000000000e+00
1.276183749629792308e-01,2.105778690519676324e-02,0.000000000000000000e+00
8.806284604504119318e-02,3.092488996731701523e-02,0.000000000000000000e+00
8.087093169632518508e-02,3.092488996731701523e-02,0.000000000000000000e+00
1.455981608347692302e-01,5.559264762261764692e-02,0.000000000000000000e+00
1.312143321373372140e-01,2.599133843625689097e-02,0.000000000000000000e+00
1.024466747424731955e-01,7.039330221579802316e-02,0.000000000000000000e+00
1.060426319168311926e-01,3.585844149837714295e-02,0.000000000000000000e+00
1.132345462655472146e-01,1.612423537413663552e-02,0.000000000000000000e+00
8.806284604504119318e-02,2.599133843625689097e-02,0.000000000000000000e+00
7.727497452196718797e-02,6.052619915367778158e-02,0.000000000000000000e+00
1.204264606142632227e-01,3.585844149837714295e-02,0.000000000000000000e+00
5.210327430146116656e-02,2.599133843625689097e-02,0.000000000000000000e+00
1.240224177886212337e-01,2.599133843625689097e-02,0.000000000000000000e+00
7.727497452196718797e-02,5.559264762261764692e-02,0.000000000000000000e+00
3.052753125531316308e-02,4.572554456049739841e-02,0.000000000000000000e+00
6.289114582453517177e-02,-3.609970750103867580e-03,0.000000000000000000e+00
4.850731712710316945e-02,1.612423537413663552e-02,0.000000000000000000e+00
5.929518865017718160e-02,3.092488996731701523e-02,0.000000000000000000e+00
5.569923147581917061e-02,1.612423537413663552e-02,0.000000000000000000e+00
2.693157408095516250e-02,1.119068384307650953e-02,0.000000000000000000e+00
8.951788209165152665e-03,1.119068384307650953e-02,0.000000000000000000e+00
-5.432040488266855725e-03,2.105778690519676324e-02,0.000000000000000000e+00
1.060426319168311926e-01,5.559264762261764692e-02,0.000000000000000000e+00
8.951788209165152665e-03,6.052619915367778158e-02,0.000000000000000000e+00
1.096385890911892036e-01,7.532685374685815782e-02,0.000000000000000000e+00
2.333561690659716192e-02,6.545975068473790237e-02,0.000000000000000000e+00
6.648710299889318276e-02,7.039330221579802316e-02,0.000000000000000000e+00
1.254774538352315325e-02,2.105778690519676324e-02,0.000000000000000000e+00
6.289114582453517177e-02,0.000000000000000000e+00,0.000000000000000000e+00
-5.432040488266855725e-03,-3.609970750103867580e-03,0.000000000000000000e+00
1.759873860449148036e-03,-1.841062534328424469e-02,0.000000000000000000e+00
-3.419969788313087511e-02,-1.841062534328424469e-02,0.000000000000000000e+00
-9.027997662624857172e-03,-1.347707381222412043e-02,0.000000000000000000e+00
0.000000000000000000e+00,-2.827772840540449667e-02,0.000000000000000000e+00
-1.262395483698285949e-02,-8.543522281163994439e-03,0.000000000000000000e+00
-6.656331245235289074e-02,1.323580780956258628e-03,0.000000000000000000e+00
3.412348842967116713e-02,-3.609970750103867580e-03,0.000000000000000000e+00
-5.937139810363688264e-02,1.612423537413663552e-02,0.000000000000000000e+00
-6.656331245235289074e-02,1.323580780956258628e-03,0.000000000000000000e+00
-1.262395483698285949e-02,-3.321127993646462440e-02,0.000000000000000000e+00
-5.432040488266855725e-03,-1.347707381222412043e-02,0.000000000000000000e+00
-6.656331245235289074e-02,2.599133843625689097e-02,0.000000000000000000e+00
0.000000000000000000e+00,1.119068384307650953e-02,0.000000000000000000e+00
-4.858352658056287743e-02,-1.841062534328424469e-02,0.000000000000000000e+00
-6.656331245235289074e-02,1.323580780956258628e-03,0.000000000000000000e+00
-2.700778353441486701e-02,3.585844149837714295e-02,0.000000000000000000e+00
1.254774538352315325e-02,9.012750834003853406e-02,0.000000000000000000e+00
2.693157408095516250e-02,1.323580780956258628e-03,0.000000000000000000e+00
2.211132614962872667e-01,-3.144237172068918285e-01,0.000000000000000000e+00
4.494565420680203816e-01,-6.301710151947399474e-01,0.000000000000000000e+00
2.966283621578053031e-01,-3.168904929724218889e-01,0.000000000000000000e+00
3.613555912962493344e-01,-3.609970750103867580e-03,0.000000000000000000e+00
1.312143321373372140e-01,1.443965751816999321e-01,0.000000000000000000e+00
-9.892692702157489248e-02,3.565392910172853203e-01,0.000000000000000000e+00
1.973965973223915787e-02,4.996122854180289896e-01,1.927635024484003201e-01
0.000000000000000000e+00,0.000000000000000000e+00,1.927635024484003201e-01
0.000000000000000000e+00,0.000000000000000000e+00,1.927635024484003201e-01
0.000000000000000000e+00,0.000000000000000000e+00,1.927635024484003201e-01
0.000000000000000000e+00,0.000000000000000000e+00,1.927635024484003201e-01
0.000000000000000000e+00,0.000000000000000000e+00,1.927635024484003201e-01
0.000000000000000000e+00,0.000000000000000000e+00,1.927635024484003201e-01
0.000000000000000000e+00,0.000000000000000000e+00,1.927635024484003201e-01
0.000000000000000000e+00,0.000000000000000000e+00,1.927635024484003201e-01
0.000000000000000000e+00,0.000000000000000000e+00,1.927635024484003201e-01
0.000000000000000000e+00,0.000000000000000000e+00,1.927635024484003201e-01
0.000000000000000000e+00,0.000000000000000000e+00,1.927635024484003201e-01
0.000000000000000000e+00,0.000000000000000000e+00,1.927635024484003201e-01
0.000000000000000000e+00,0.000000000000000000e+00,1.927635024484003201e-01
0.000000000000000000e+00,0.000000000000000000e+00,1.927635024484003201e-01
0.000000000000000000e+00,0.000000000000000000e+00,1.927635024484003201e-01
0.000000000000000000e+00,0.000000000000000000e+00,1.927635024484003201e-01
0.000000000000000000e+00,0.000000000000000000e+00,1.927635024484003201e-01
0.000000000000000000e+00,0.000000000000000000e+00,1.927635024484003201e-01
0.000000000000000000e+00,0.000000000000000000e+00,1.927635024484003201e-01
0.000000000000000000e+00,0.000000000000000000e+00,1.927635024484003201e-01
0.000000000000000000e+00,0.000000000000000000e+00,1.927635024484003201e-01
0.000000000000000000e+00,0.000000000000000000e+00,1.927635024484003201e-01
0.000000000000000000e+00,0.000000000000000000e+00,1.927635024484003201e-01
0.000000000000000000e+00,0.000000000000000000e+00,1.927635024484003201e-01
0.000000000000000000e+00,0.000000000000000000e+00,1.927635024484003201e-01
0.000000000000000000e+00,0.000000000000000000e+00,1.927635024484003201e-01
0.000000000000000000e+00,0.000000000000000000e+00,1.927635024484003201e-01
0.000000000000000000e+00,0.000000000000000000e+00,1.927635024484003201e-01
0.000000000000000000e+00,0.000000000000000000e+00,1.927635024484003201e-01
0.000000000000000000e+00,0.000000000000000000e+00,1.927635024484003201e-01
0.000000000000000000e+00,0.000000000000000000e+00,1.927635024484003201e-01
0.000000000000000000e+00,0.000000000000000000e+00,1.927635024484003201e-01
0.000000000000000000e+00,0.000000000000000000e+00,1.927635024484003201e-01
0.000000000000000000e+00,0.000000000000000000e+00,1.927635024484003201e-01
0.000000000000000000e+00,0.000000000000000000e+00,1.927635024484003201e-01
0.000000000000000000e+00,0.000000000000000000e+00,1.927635024484003201e-01
0.000000000000000000e+00,0.000000000000000000e+00,1.927635024484003201e-01
0.000000000000000000e+00,0.000000000000000000e+00,1.927635024484003201e-01
0.000000000000000000e+00,0.000000000000000000e+00,1.927635024484003201e-01
0.000000000000000000e+00,0.000000000000000000e+00,1.927635024484003201e-01
0.000000000000000000e+00,0.000000000000000000e+00,1.927635024484003201e-01
0.000000000000000000e+00,0.000000000000000000e+00,1.927635024484003201e-01
0.000000000000000000e+00,0.000000000000000000e+00,1.927635024484003201e-01
0.000000000000000000e+00,0.000000000000000000e+00,1.927635024484003201e-01
0.000000000000000000e+00,0.000000000000000000e+00,1.927635024484003201e-01
0.000000000000000000e+00,0.000000000000000000e+00,1.927635024484003201e-01
0.000000000000000000e+00,0.000000000000000000e+00,1.927635024484003201e-01
0.000000000000000000e+00,0.000000000000000000e+00,1.927635024484003201e-01
0.000000000000000000e+00,0.000000000000000000e+00,1.927635024484003201e-01
0.000000000000000000e+00,0.000000000000000000e+00,1.927635024484003201e-01
0.000000000000000000e+00,0.000000000000000000e+00,1.927635024484003201e-01
0.000000000000000000e+00,0.000000000000000000e+00,1.927635024484003201e-01
0.000000000000000000e+00,0.000000000000000000e+00,1.927635024484003201e-01
