2.211132614962872667e-01,-1.269487590266070165e-01,0.000000000000000000e+00
4.260828204346934212e-01,-4.426960570144551355e-01,0.000000000000000000e+00
5.771130217577293831e-01,-3.538921294553727948e-01,0.000000000000000000e+00
3.937192058654713223e-01,-4.061160723305481252e-02,0.000000000000000000e+00
1.635779467065592574e-01,4.572554456049739841e-02,0.000000000000000000e+00
-6.656331245235289074e-02,2.529347088650226727e-01,0.000000000000000000e+00
1.491941180091272412e-01,3.861406002036461005e-01,0.000000000000000000e+00
2.462849617167932603e-01,5.242800430733296491e-01,0.000000000000000000e+00
1.671739038809172406e-01,7.758911711573960313e-01,0.000000000000000000e+00
2.390930473680772661e-01,8.104260318748169878e-01,0.000000000000000000e+00
1.851536897527072678e-01,4.946787338869688688e-01,0.000000000000000000e+00
8.087093169632518508e-02,1.789314358991208054e-01,0.000000000000000000e+00
-5.217948375492088148e-02,2.599133843625689097e-02,0.000000000000000000e+00
-7.735118397542689594e-02,-3.609970750103867580e-03,0.000000000000000000e+00
-1.133107557190069226e-01,-1.841062534328424469e-02,0.000000000000000000e+00
-1.816339420318089370e-01,-3.321127993646462440e-02,0.000000000000000000e+00
-1.600581989856609266e-01,-3.321127993646462440e-02,0.000000000000000000e+00
-1.600581989856609266e-01,-5.294548606070512142e-02,0.000000000000000000e+00
-1.888258563805249590e-01,-3.321127993646462440e-02,0.000000000000000000e+00
-2.139975566010309804e-01,-4.801193452964499370e-02,0.000000000000000000e+00
-1.996137279035989365e-01,-5.294548606070512142e-02,0.000000000000000000e+00
-2.175935137753889637e-01,-5.294548606070512142e-02,0.000000000000000000e+00
-2.499571283446109793e-01,-6.774614065388549766e-02,0.000000000000000000e+00
-2.571490426933270013e-01,-6.774614065388549766e-02,0.000000000000000000e+00
-2.715328713907590452e-01,-6.774614065388549766e-02,0.000000000000000000e+00
-2.859167000881909781e-01,-8.748034677812600857e-02,0.000000000000000000e+00
-3.182803146574130770e-01,-1.022810013713063848e-01,0.000000000000000000e+00
-3.362601005292030765e-01,-7.761324371600575311e-02,0.000000000000000000e+00
-3.614318007497090424e-01,-9.734744984024626402e-02,0.000000000000000000e+00
-3.758156294471410863e-01,-1.417494136197874066e-01,0.000000000000000000e+00
-4.117752011907210852e-01,-1.368158620887272581e-01,0.000000000000000000e+00
-4.261590298881531291e-01,-1.762842743372082799e-01,0.000000000000000000e+00
-4.225630727137951181e-01,-1.910849289303886422e-01,0.000000000000000000e+00
-4.261590298881531291e-01,-1.960184804614487630e-01,0.000000000000000000e+00
-4.117752011907210852e-01,-2.206862381167494225e-01,0.000000000000000000e+00
-3.866035009702150638e-01,-2.650882018962905651e-01,0.000000000000000000e+00
-3.434520148779190429e-01,-2.552210988341702680e-01,0.000000000000000000e+00
-2.499571283446109793e-01,-2.502875473031102027e-01,0.000000000000000000e+00
-2.139975566010309804e-01,-2.650882018962905651e-01,0.000000000000000000e+00
-1.564622418113029434e-01,-2.256197896478095433e-01,0.000000000000000000e+00
-7.375522680106889883e-02,-1.960184804614487630e-01,0.000000000000000000e+00
1.759873860449148036e-03,-1.861513773993285215e-01,0.000000000000000000e+00
2.333561690659716192e-02,-1.368158620887272581e-01,0.000000000000000000e+00
7.727497452196718797e-02,-1.466829651508475274e-01,0.000000000000000000e+00
9.885071756811519839e-02,-7.267969218494563233e-02,0.000000000000000000e+00
1.240224177886212337e-01,-8.254679524706588778e-02,0.000000000000000000e+00
1.204264606142632227e-01,-6.774614065388549766e-02,0.000000000000000000e+00
1.168305034399052117e-01,-5.294548606070512142e-02,0.000000000000000000e+00
1.276183749629792308e-01,-2.334417687434437241e-02,0.000000000000000000e+00
1.312143321373372140e-01,-2.334417687434437241e-02,0.000000000000000000e+00
1.060426319168311926e-01,-8.543522281163994439e-03,0.000000000000000000e+00
1.060426319168311926e-01,-1.841062534328424469e-02,0.000000000000000000e+00
1.024466747424731955e-01,-8.543522281163994439e-03,0.000000000000000000e+00
1.060426319168311926e-01,-2.827772840540449667e-02,0.000000000000000000e+00
9.525476039375720128e-02,2.105778690519676324e-02,0.000000000000000000e+00
1.060426319168311926e-01,-3.609970750103867580e-03,0.000000000000000000e+00
1.060426319168311926e-01,-8.543522281163994439e-03,0.000000000000000000e+00
1.060426319168311926e-01,1.119068384307650953e-02,0.000000000000000000e+00
9.885071756811519839e-02,-8.543522281163994439e-03,0.000000000000000000e+00
8.446688887068319607e-02,1.323580780956258628e-03,0.000000000000000000e+00
1.024466747424731955e-01,2.599133843625689097e-02,0.000000000000000000e+00
9.165880321939919029e-02,-2.334417687434437241e-02,0.000000000000000000e+00
1.024466747424731955e-01,2.599133843625689097e-02,0.000000000000000000e+00
6.648710299889318276e-02,0.000000000000000000e+00,0.000000000000000000e+00
8.446688887068319607e-02,-3.609970750103867580e-03,0.000000000000000000e+00
7.008306017325117987e-02,0.000000000000000000e+00,0.000000000000000000e+00
5.929518865017718160e-02,0.000000000000000000e+00,0.000000000000000000e+00
6.648710299889318276e-02,0.000000000000000000e+00,0.000000000000000000e+00
6.289114582453517177e-02,0.000000000000000000e+00,0.000000000000000000e+00
4.131540277838716829e-02,1.119068384307650953e-02,0.000000000000000000e+00
2.693157408095516250e-02,1.119068384307650953e-02,0.000000000000000000e+00
5.929518865017718160e-02,1.323580780956258628e-03,0.000000000000000000e+00
3.412348842967116713e-02,2.599133843625689097e-02,0.000000000000000000e+00
3.771944560402916424e-02,1.323580780956258628e-03,0.000000000000000000e+00
3.771944560402916424e-02,1.323580780956258628e-03,0.000000000000000000e+00
4.491135995274516540e-02,0.000000000000000000e+00,0.000000000000000000e+00
3.052753125531316308e-02,1.323580780956258628e-03,0.000000000000000000e+00
2.333561690659716192e-02,2.105778690519676324e-02,0.000000000000000000e+00
3.052753125531316308e-02,2.599133843625689097e-02,0.000000000000000000e+00
9.885071756811519839e-02,5.559264762261764692e-02,0.000000000000000000e+00
1.024466747424731955e-01,8.026040527791827861e-02,0.000000000000000000e+00
9.885071756811519839e-02,8.519395680897841328e-02,0.000000000000000000e+00
9.525476039375720128e-02,4.572554456049739841e-02,0.000000000000000000e+00
9.885071756811519839e-02,2.599133843625689097e-02,0.000000000000000000e+00
6.648710299889318276e-02,0.000000000000000000e+00,0.000000000000000000e+00
1.973965973223915787e-02,1.323580780956258628e-03,0.000000000000000000e+00
1.973965973223915787e-02,-3.321127993646462440e-02,0.000000000000000000e+00
-1.621991201134086180e-02,-1.347707381222412043e-02,0.000000000000000000e+00
-1.621991201134086180e-02,-2.827772840540449667e-02,0.000000000000000000e+00
-1.981586918569886238e-02,-2.827772840540449667e-02,0.000000000000000000e+00
-3.060374070877287106e-02,1.119068384307650953e-02,0.000000000000000000e+00
0.000000000000000000e+00,-3.609970750103867580e-03,0.000000000000000000e+00
-3.060374070877287106e-02,-8.543522281163994439e-03,0.000000000000000000e+00
-2.700778353441486701e-02,1.323580780956258628e-03,0.000000000000000000e+00
-2.700778353441486701e-02,0.000000000000000000e+00,0.000000000000000000e+00
-1.262395483698285949e-02,-1.347707381222412043e-02,0.000000000000000000e+00
-2.341182636005686643e-02,2.105778690519676324e-02,0.000000000000000000e+00
-3.060374070877287106e-02,-1.347707381222412043e-02,0.000000000000000000e+00
-2.341182636005686643e-02,-8.543522281163994439e-03,0.000000000000000000e+00
-2.700778353441486701e-02,1.323580780956258628e-03,0.000000000000000000e+00
-3.060374070877287106e-02,-3.609970750103867580e-03,0.000000000000000000e+00
-5.432040488266855725e-03,6.545975068473790237e-02,1.927635024484003201e-01
0.000000000000000000e+00,0.000000000000000000e+00,1.927635024484003201e-01
0.000000000000000000e+00,0.000000000000000000e+00,1.927635024484003201e-01
0.000000000000000000e+00,0.000000000000000000e+00,1.927635024484003201e-01
0.000000000000000000e+00,0.000000000000000000e+00,1.927635024484003201e-01
0.000000000000000000e+00,0.000000000000000000e+00,1.927635024484003201e-01
0.000000000000000000e+00,0.000000000000000000e+00,1.927635024484003201e-01
0.000000000000000000e+00,0.000000000000000000e+00,1.927635024484003201e-01
0.000000000000000000e+00,0.000000000000000000e+00,1.927635024484003201e-01
0.000000000000000000e+00,0.000000000000000000e+00,1.927635024484003201e-01
0.000000000000000000e+00,0.000000000000000000e+00,1.927635024484003201e-01
0.000000000000000000e+00,0.000000000000000000e+00,1.927635024484003201e-01
0.000000000000000000e+00,0.000000000000000000e+00,1.927635024484003201e-01
0.000000000000000000e+00,0.000000000000000000e+00,1.927635024484003201e-01
0.000000000000000000e+00,0.000000000000000000e+00,1.927635024484003201e-01
0.000000000000000000e+00,0.000000000000000000e+00,1.927635024484003201e-01
0.000000000000000000e+00,0.000000000000000000e+00,1.927635024484003201e-01
0.000000000000000000e+00,0.000000000000000000e+00,1.927635024484003201e-01
0.000000000000000000e+00,0.000000000000000000e+00,1.927635024484003201e-01
0.000000000000000000e+00,0.000000000000000000e+00,1.927635024484003201e-01
0.000000000000000000e+00,0.000000000000000000e+00,1.927635024484003201e-01
0.000000000000000000e+00,0.000000000000000000e+00,1.927635024484003201e-01
0.000000000000000000e+00,0.000000000000000000e+00,1.927635024484003201e-01
0.000000000000000000e+00,0.000000000000000000e+00,1.927635024484003201e-01
0.000000000000000000e+00,0.000000000000000000e+00,1.927635024484003201e-01
0.000000000000000000e+00,0.000000000000000000e+00,1.927635024484003201e-01
0.000000000000000000e+00,0.000000000000000000e+00,1.927635024484003201e-01
0.000000000000000000e+00,0.000000000000000000e+00,1.927635024484003201e-01
0.000000000000000000e+00,0.000000000000000000e+00,1.927635024484003201e-01
0.000000000000000000e+00,0.000000000000000000e+00,1.927635024484003201e-01
0.000000000000000000e+00,0.000000000000000000e+00,1.927635024484003201e-01
0.000000000000000000e+00,0.000000000000000000e+00,1.927635024484003201e-01
0.000000000000000000e+00,0.000000000000000000e+00,1.927635024484003201e-01
0.000000000000000000e+00,0.000000000000000000e+00,1.927635024484003201e-01
0.000000000000000000e+00,0.000000000000000000e+00,1.927635024484003201e-01
0.000000000000000000e+00,0.000000000000000000e+00,1.927635024484003201e-01
0.000000000000000000e+00,0.000000000000000000e+00,1.927635024484003201e-01
0.000000000000000000e+00,0.000000000000000000e+00,1.927635024484003201e-01
0.000000000000000000e+00,0.000000000000000000e+00,1.927635024484003201e-01
0.000000000000000000e+00,0.000000000000000000e+00,1.927635024484003201e-01
0.000000000000000000e+00,0.000000000000000000e+00,1.927635024484003201e-01
0.000000000000000000e+00,0.000000000000000000e+00,1.927635024484003201e-01
0.000000000000000000e+00,0.000000000000000000e+00,1.927635024484003201e-01
0.000000000000000000e+00,0.000000000000000000e+00,1.927635024484003201e-01
0.000000000000000000e+00,0.000000000000000000e+00,1.927635024484003201e-01
0.000000000000000000e+00,0.000000000000000000e+00,1.927635024484003201e-01
0.000000000000000000e+00,0.000000000000000000e+00,1.927635024484003201e-01
0.000000000000000000e+00,0.000000000000000000e+00,1.927635024484003201e-01
0.000000000000000000e+00,0.000000000000000000e+00,1.927635024484003201e-01
0.000000000000000000e+00,0.000000000000000000e+00,1.927635024484003201e-01
0.000000000000000000e+00,0.000000000000000000e+00,1.927635024484003201e-01
