5.663251502346554611e-01,4.009412547968265184e-01,0.000000000000000000e+00
5.914968504551614270e-01,5.390806976665100114e-01,0.000000000000000000e+00
6.166685506756675039e-01,6.969543466604339876e-01,0.000000000000000000e+00
6.634159939423214247e-01,5.736155583839309680e-01,0.000000000000000000e+00
5.051938782705693853e-01,2.578682603960828490e-01,0.000000000000000000e+00
2.750526191116572927e-01,8.519395680897841328e-02,0.000000000000000000e+00
1.204264606142632227e-01,1.323580780956258628e-03,0.000000000000000000e+00
1.614370255788115729e-02,-2.334417687434437241e-02,0.000000000000000000e+00
-9.027997662624857172e-03,-2.334417687434437241e-02,0.000000000000000000e+00
-4.498756940620488032e-02,-3.321127993646462440e-02,0.000000000000000000e+00
-4.858352658056287743e-02,-4.801193452964499370e-02,0.000000000000000000e+00
-8.094714114978489305e-02,-3.814483146752475212e-02,0.000000000000000000e+00
-9.892692702157489248e-02,-4.801193452964499370e-02,0.000000000000000000e+00
-1.205026700677229168e-01,-5.787903759176525609e-02,0.000000000000000000e+00
-1.205026700677229168e-01,-3.814483146752475212e-02,0.000000000000000000e+00
-1.384824559395129162e-01,-7.267969218494563233e-02,0.000000000000000000e+00
-1.384824559395129162e-01,-5.294548606070512142e-02,0.000000000000000000e+00
-1.636541561600189376e-01,-4.801193452964499370e-02,0.000000000000000000e+00
-1.492703274625869214e-01,-7.761324371600575311e-02,0.000000000000000000e+00
-1.852298992061669480e-01,-6.774614065388549766e-02,0.000000000000000000e+00
-1.852298992061669480e-01,-7.761324371600575311e-02,0.000000000000000000e+00
-2.175935137753889637e-01,-1.022810013713063848e-01,0.000000000000000000e+00
-2.175935137753889637e-01,-1.269487590266070165e-01,0.000000000000000000e+00
-1.960177707292409255e-01,-9.734744984024626402e-02,0.000000000000000000e+00
-2.139975566010309804e-01,-1.121481044334266264e-01,0.000000000000000000e+00
-1.852298992061669480e-01,-1.220152074955468957e-01,0.000000000000000000e+00
-1.636541561600189376e-01,-1.072145529023665056e-01,0.000000000000000000e+00
-1.240986272420809000e-01,-1.269487590266070165e-01,0.000000000000000000e+00
-7.015926962671088785e-02,-1.170816559644867610e-01,0.000000000000000000e+00
-1.262395483698285949e-02,-7.267969218494563233e-02,0.000000000000000000e+00
3.771944560402916424e-02,-6.281258912282537687e-02,0.000000000000000000e+00
1.132345462655472146e-01,-6.281258912282537687e-02,0.000000000000000000e+00
1.384062464860532360e-01,-8.254679524706588778e-02,0.000000000000000000e+00
1.671739038809172406e-01,-8.254679524706588778e-02,0.000000000000000000e+00
2.067294327988552782e-01,-6.281258912282537687e-02,0.000000000000000000e+00
2.211132614962872667e-01,-2.827772840540449667e-02,0.000000000000000000e+00
2.211132614962872667e-01,-8.543522281163994439e-03,0.000000000000000000e+00
2.390930473680772661e-01,-3.609970750103867580e-03,0.000000000000000000e+00
2.390930473680772661e-01,1.119068384307650953e-02,0.000000000000000000e+00
2.283051758450032886e-01,1.612423537413663552e-02,0.000000000000000000e+00
2.247092186706452777e-01,2.105778690519676324e-02,0.000000000000000000e+00
2.031334756244972672e-01,4.572554456049739841e-02,0.000000000000000000e+00
2.067294327988552782e-01,3.092488996731701523e-02,0.000000000000000000e+00
1.995375184501392840e-01,3.092488996731701523e-02,0.000000000000000000e+00
1.887496469270652510e-01,4.572554456049739841e-02,0.000000000000000000e+00
1.815577325783492568e-01,4.572554456049739841e-02,0.000000000000000000e+00
1.923456041014232620e-01,5.559264762261764692e-02,0.000000000000000000e+00
1.815577325783492568e-01,6.052619915367778158e-02,0.000000000000000000e+00
1.923456041014232620e-01,7.039330221579802316e-02,0.000000000000000000e+00
2.031334756244972672e-01,8.519395680897841328e-02,0.000000000000000000e+00
2.139213471475712447e-01,7.532685374685815782e-02,0.000000000000000000e+00
2.103253899732132892e-01,8.519395680897841328e-02,0.000000000000000000e+00
2.247092186706452777e-01,1.049281629332189242e-01,0.000000000000000000e+00
2.498809188911512713e-01,1.443965751816999321e-01,0.000000000000000000e+00
1.815577325783492568e-01,1.246623690574594212e-01,0.000000000000000000e+00
1.959415612757812730e-01,1.197288175263992865e-01,0.000000000000000000e+00
1.959415612757812730e-01,9.506105987109865485e-02,0.000000000000000000e+00
1.923456041014232620e-01,7.039330221579802316e-02,0.000000000000000000e+00
1.455981608347692302e-01,4.572554456049739841e-02,0.000000000000000000e+00
1.132345462655472146e-01,5.065909609155752613e-02,0.000000000000000000e+00
7.008306017325117987e-02,3.092488996731701523e-02,0.000000000000000000e+00
8.446688887068319607e-02,3.585844149837714295e-02,0.000000000000000000e+00
7.008306017325117987e-02,4.572554456049739841e-02,0.000000000000000000e+00
5.929518865017718160e-02,2.105778690519676324e-02,0.000000000000000000e+00
5.210327430146116656e-02,4.572554456049739841e-02,0.000000000000000000e+00
4.491135995274516540e-02,3.585844149837714295e-02,0.000000000000000000e+00
5.210327430146116656e-02,3.585844149837714295e-02,0.000000000000000000e+00
3.412348842967116713e-02,1.612423537413663552e-02,0.000000000000000000e+00
3.412348842967116713e-02,4.079199302943727068e-02,0.000000000000000000e+00
3.412348842967116713e-02,3.585844149837714295e-02,0.000000000000000000e+00
4.131540277838716829e-02,3.585844149837714295e-02,0.000000000000000000e+00
2.693157408095516250e-02,5.065909609155752613e-02,0.000000000000000000e+00
3.412348842967116713e-02,4.079199302943727068e-02,0.000000000000000000e+00
2.693157408095516250e-02,3.585844149837714295e-02,0.000000000000000000e+00
3.052753125531316308e-02,6.545975068473790237e-02,0.000000000000000000e+00
1.614370255788115729e-02,4.079199302943727068e-02,0.000000000000000000e+00
1.614370255788115729e-02,4.572554456049739841e-02,0.000000000000000000e+00
2.693157408095516250e-02,5.065909609155752613e-02,0.000000000000000000e+00
3.412348842967116713e-02,5.065909609155752613e-02,0.000000000000000000e+00
1.614370255788115729e-02,5.065909609155752613e-02,0.000000000000000000e+00
1.614370255788115729e-02,6.545975068473790237e-02,0.000000000000000000e+00
3.412348842967116713e-02,5.065909609155752613e-02,0.000000000000000000e+00
3.412348842967116713e-02,5.065909609155752613e-02,0.000000000000000000e+00
3.412348842967116713e-02,5.065909609155752613e-02,0.000000000000000000e+00
5.210327430146116656e-02,7.532685374685815782e-02,0.000000000000000000e+00
7.008306017325117987e-02,9.506105987109865485e-02,0.000000000000000000e+00
8.087093169632518508e-02,1.049281629332189242e-01,0.000000000000000000e+00
7.367901734760917698e-02,8.026040527791827861e-02,0.000000000000000000e+00
8.087093169632518508e-02,1.098617144642790450e-01,0.000000000000000000e+00
1.168305034399052117e-01,2.183998481476017994e-01,0.000000000000000000e+00
1.959415612757812730e-01,1.246623690574594212e-01,1.927635024484003201e-01
0.000000000000000000e+00,0.000000000000000000e+00,1.927635024484003201e-01
0.000000000000000000e+00,0.000000000000000000e+00,1.927635024484003201e-01
0.000000000000000000e+00,0.000000000000000000e+00,1.927635024484003201e-01
0.000000000000000000e+00,0.000000000000000000e+00,1.927635024484003201e-01
0.000000000000000000e+00,0.000000000000000000e+00,1.927635024484003201e-01
0.000000000000000000e+00,0.000000000000000000e+00,1.927635024484003201e-01
0.000000000000000000e+00,0.000000000000000000e+00,1.927635024484003201e-01
0.000000000000000000e+00,0.000000000000000000e+00,1.927635024484003201e-01
0.000000000000000000e+00,0.000000000000000000e+00,1.927635024484003201e-01
0.000000000000000000e+00,0.000000000000000000e+00,1.927635024484003201e-01
0.000000000000000000e+00,0.000000000000000000e+00,1.927635024484003201e-01
0.000000000000000000e+00,0.000000000000000000e+00,1.927635024484003201e-01
0.000000000000000000e+00,0.000000000000000000e+00,1.927635024484003201e-01
0.000000000000000000e+00,0.000000000000000000e+00,1.927635024484003201e-01
0.000000000000000000e+00,0.000000000000000000e+00,1.927635024484003201e-01
0.000000000000000000e+00,0.000000000000000000e+00,1.927635024484003201e-01
0.000000000000000000e+00,0.000000000000000000e+00,1.927635024484003201e-01
0.000000000000000000e+00,0.000000000000000000e+00,1.927635024484003201e-01
0.000000000000000000e+00,0.000000000000000000e+00,1.927635024484003201e-01
0.000000000000000000e+00,0.000000000000000000e+00,1.927635024484003201e-01
0.000000000000000000e+00,0.000000000000000000e+00,1.927635024484003201e-01
0.000000000000000000e+00,0.000000000000000000e+00,1.927635024484003201e-01
0.000000000000000000e+00,0.000000000000000000e+00,1.927635024484003201e-01
0.000000000000000000e+00,0.000000000000000000e+00,1.927635024484003201e-01
0.000000000000000000e+00,0.000000000000000000e+00,1.927635024484003201e-01
0.000000000000000000e+00,0.000000000000000000e+00,1.927635024484003201e-01
0.000000000000000000e+00,0.000000000000000000e+00,1.927635024484003201e-01
0.000000000000000000e+00,0.000000000000000000e+00,1.927635024484003201e-01
0.000000000000000000e+00,0.000000000000000000e+00,1.927635024484003201e-01
0.000000000000000000e+00,0.000000000000000000e+00,1.927635024484003201e-01
0.000000000000000000e+00,0.000000000000000000e+00,1.927635024484003201e-01
0.000000000000000000e+00,0.000000000000000000e+00,1.927635024484003201e-01
0.000000000000000000e+00,0.000000000000000000e+00,1.927635024484003201e-01
0.000000000000000000e+00,0.000000000000000000e+00,1.927635024484003201e-01
0.000000000000000000e+00,0.000000000000000000e+00,1.927635024484003201e-01
0.000000000000000000e+00,0.000000000000000000e+00,1.927635024484003201e-01
0.000000000000000000e+00,0.000000000000000000e+00,1.927635024484003201e-01
0.000000000000000000e+00,0.000000000000000000e+00,1.927635024484003201e-01
0.000000000000000000e+00,0.000000000000000000e+00,1.927635024484003201e-01
0.000000000000000000e+00,0.000000000000000000e+00,1.927635024484003201e-01
0.000000000000000000e+00,0.000000000000000000e+00,1.927635024484003201e-01
0.000000000000000000e+00,0.000000000000000000e+00,1.927635024484003201e-01
0.000000000000000000e+00,0.000000000000000000e+00,1.927635024484003201e-01
0.000000000000000000e+00,0.000000000000000000e+00,1.927635024484003201e-01
0.000000000000000000e+00,0.000000000000000000e+00,1.927635024484003201e-01
0.000000000000000000e+00,0.000000000000000000e+00,1.927635024484003201e-01
0.000000000000000000e+00,0.000000000000000000e+00,1.927635024484003201e-01
0.000000000000000000e+00,0.000000000000000000e+00,1.927635024484003201e-01
0.000000000000000000e+00,0.000000000000000000e+00,1.927635024484003201e-01
0.000000000000000000e+00,0.000000000000000000e+00,1.927635024484003201e-01
0.000000000000000000e+00,0.000000000000000000e+00,1.927635024484003201e-01
0.000000000000000000e+00,0.000000000000000000e+00,1.927635024484003201e-01
0.000000000000000000e+00,0.000000000000000000e+00,1.927635024484003201e-01
0.000000000000000000e+00,0.000000000000000000e+00,1.927635024484003201e-01
0.000000000000000000e+00,0.000000000000000000e+00,1.927635024484003201e-01
0.000000000000000000e+00,0.000000000000000000e+00,1.927635024484003201e-01
0.000000000000000000e+00,0.000000000000000000e+00,1.927635024484003201e-01
0.000000000000000000e+00,0.000000000000000000e+00,1.927635024484003201e-01
0.000000000000000000e+00,0.000000000000000000e+00,1.927635024484003201e-01
0.000000000000000000e+00,0.000000000000000000e+00,1.927635024484003201e-01
0.000000000000000000e+00,0.000000000000000000e+00,1.927635024484003201e-01
