-3.060374070877287106e-02,4.572554456049739841e-02,0.000000000000000000e+00
9.885071756811519839e-02,-2.334417687434437241e-02,0.000000000000000000e+00
3.110121908552372916e-01,-3.390914748621924324e-01,0.000000000000000000e+00
5.195777069680014293e-01,-4.969651238561164641e-01,0.000000000000000000e+00
2.894364478090892812e-01,-1.836846016337984611e-01,0.000000000000000000e+00
8.087093169632518508e-02,1.295959205885195420e-01,0.000000000000000000e+00
-1.492703274625869214e-01,2.430676058029024311e-01,0.000000000000000000e+00
-1.312905415907969220e-01,4.354761155142474194e-01,0.000000000000000000e+00
1.614370255788115729e-02,5.785491099149910887e-01,0.000000000000000000e+00
0.000000000000000000e+00,7.956253772816365144e-01,0.000000000000000000e+00
7.008306017325117987e-02,9.534990262755606016e-01,0.000000000000000000e+00
-8.813905549850090115e-02,7.265556558467947124e-01,0.000000000000000000e+00
-1.836083313908854061e-03,4.108083578589467044e-01,0.000000000000000000e+00
-8.454309832414290404e-02,9.506105987109865485e-02,0.000000000000000000e+00
-1.492703274625869214e-01,0.000000000000000000e+00,0.000000000000000000e+00
-1.636541561600189376e-01,-1.347707381222412043e-02,0.000000000000000000e+00
-1.600581989856609266e-01,-3.321127993646462440e-02,0.000000000000000000e+00
-1.708460705087349318e-01,-8.543522281163994439e-03,0.000000000000000000e+00
-1.744420276830929428e-01,-4.307838299858487291e-02,0.000000000000000000e+00
-2.139975566010309804e-01,-4.801193452964499370e-02,0.000000000000000000e+00
-1.816339420318089370e-01,-2.334417687434437241e-02,0.000000000000000000e+00
-2.391692568215370018e-01,-4.307838299858487291e-02,0.000000000000000000e+00
-2.427652139958950128e-01,-7.267969218494563233e-02,0.000000000000000000e+00
-2.355732996471789908e-01,-4.307838299858487291e-02,0.000000000000000000e+00
-2.319773424728210076e-01,-8.254679524706588778e-02,0.000000000000000000e+00
-2.463611711702529683e-01,-7.761324371600575311e-02,0.000000000000000000e+00
-3.038964859599810331e-01,-7.761324371600575311e-02,0.000000000000000000e+00
-3.074924431343390441e-01,-9.734744984024626402e-02,0.000000000000000000e+00
-3.038964859599810331e-01,-1.220152074955468957e-01,0.000000000000000000e+00
-3.218762718317710325e-01,-1.269487590266070165e-01,0.000000000000000000e+00
-3.110884003086970551e-01,-1.516165166819076482e-01,0.000000000000000000e+00
-2.859167000881909781e-01,-1.910849289303886422e-01,0.000000000000000000e+00
-3.182803146574130770e-01,-2.009520319925089116e-01,0.000000000000000000e+00
-2.068056422523149585e-01,-2.009520319925089116e-01,0.000000000000000000e+00
-2.355732996471789908e-01,-2.157526865856893017e-01,0.000000000000000000e+00
-2.427652139958950128e-01,-2.453539957720500542e-01,0.000000000000000000e+00
-1.492703274625869214e-01,-2.206862381167494225e-01,0.000000000000000000e+00
-1.169067128933649058e-01,-2.404204442409899056e-01,0.000000000000000000e+00
-7.375522680106889883e-02,-2.206862381167494225e-01,0.000000000000000000e+00
-3.419969788313087511e-02,-1.812178258682684007e-01,0.000000000000000000e+00
8.951788209165152665e-03,-1.713507228061481591e-01,0.000000000000000000e+00
7.367901734760917698e-02,-1.121481044334266264e-01,0.000000000000000000e+00
6.289114582453517177e-02,-1.269487590266070165e-01,0.000000000000000000e+00
1.240224177886212337e-01,-7.267969218494563233e-02,0.000000000000000000e+00
1.132345462655472146e-01,-4.801193452964499370e-02,0.000000000000000000e+00
1.132345462655472146e-01,-2.827772840540449667e-02,0.000000000000000000e+00
1.276183749629792308e-01,-8.543522281163994439e-03,0.000000000000000000e+00
1.348102893116952250e-01,2.105778690519676324e-02,0.000000000000000000e+00
1.060426319168311926e-01,3.585844149837714295e-02,0.000000000000000000e+00
1.060426319168311926e-01,2.599133843625689097e-02,0.000000000000000000e+00
8.806284604504119318e-02,4.572554456049739841e-02,0.000000000000000000e+00
7.008306017325117987e-02,4.079199302943727068e-02,0.000000000000000000e+00
5.210327430146116656e-02,4.079199302943727068e-02,0.000000000000000000e+00
8.446688887068319607e-02,5.559264762261764692e-02,0.000000000000000000e+00
9.165880321939919029e-02,3.585844149837714295e-02,0.000000000000000000e+00
4.131540277838716829e-02,4.079199302943727068e-02,0.000000000000000000e+00
6.648710299889318276e-02,5.065909609155752613e-02,0.000000000000000000e+00
7.367901734760917698e-02,5.559264762261764692e-02,0.000000000000000000e+00
4.491135995274516540e-02,4.572554456049739841e-02,0.000000000000000000e+00
4.491135995274516540e-02,4.572554456049739841e-02,0.000000000000000000e+00
7.008306017325117987e-02,6.052619915367778158e-02,0.000000000000000000e+00
5.569923147581917061e-02,3.585844149837714295e-02,0.000000000000000000e+00
7.008306017325117987e-02,6.052619915367778158e-02,0.000000000000000000e+00
3.052753125531316308e-02,4.079199302943727068e-02,0.000000000000000000e+00
5.210327430146116656e-02,4.572554456049739841e-02,0.000000000000000000e+00
3.771944560402916424e-02,5.065909609155752613e-02,0.000000000000000000e+00
4.850731712710316945e-02,2.599133843625689097e-02,0.000000000000000000e+00
0.000000000000000000e+00,1.612423537413663552e-02,0.000000000000000000e+00
5.929518865017718160e-02,5.065909609155752613e-02,0.000000000000000000e+00
8.951788209165152665e-03,1.612423537413663552e-02,0.000000000000000000e+00
4.850731712710316945e-02,3.092488996731701523e-02,0.000000000000000000e+00
-1.621991201134086180e-02,4.079199302943727068e-02,0.000000000000000000e+00
2.693157408095516250e-02,3.092488996731701523e-02,0.000000000000000000e+00
1.254774538352315325e-02,3.092488996731701523e-02,0.000000000000000000e+00
4.131540277838716829e-02,7.532685374685815782e-02,0.000000000000000000e+00
6.648710299889318276e-02,7.039330221579802316e-02,0.000000000000000000e+00
1.168305034399052117e-01,9.012750834003853406e-02,0.000000000000000000e+00
7.008306017325117987e-02,9.506105987109865485e-02,0.000000000000000000e+00
5.210327430146116656e-02,4.079199302943727068e-02,0.000000000000000000e+00
2.693157408095516250e-02,3.092488996731701523e-02,0.000000000000000000e+00
1.254774538352315325e-02,1.323580780956258628e-03,0.000000000000000000e+00
8.951788209165152665e-03,1.323580780956258628e-03,0.000000000000000000e+00
-3.419969788313087511e-02,-2.827772840540449667e-02,0.000000000000000000e+00
-2.700778353441486701e-02,-2.334417687434437241e-02,0.000000000000000000e+00
-3.060374070877287106e-02,-2.827772840540449667e-02,0.000000000000000000e+00
-3.419969788313087511e-02,-4.801193452964499370e-02,0.000000000000000000e+00
-6.656331245235289074e-02,-1.841062534328424469e-02,0.000000000000000000e+00
-3.779565505748887222e-02,1.323580780956258628e-03,0.000000000000000000e+00
1.973965973223915787e-02,-2.827772840540449667e-02,0.000000000000000000e+00
-7.375522680106889883e-02,1.323580780956258628e-03,0.000000000000000000e+00
-2.700778353441486701e-02,1.323580780956258628e-03,0.000000000000000000e+00
-5.577544092927888553e-02,-3.609970750103867580e-03,0.000000000000000000e+00
-2.341182636005686643e-02,-3.609970750103867580e-03,0.000000000000000000e+00
-4.139161223184688321e-02,1.323580780956258628e-03,0.000000000000000000e+00
-4.139161223184688321e-02,-3.609970750103867580e-03,0.000000000000000000e+00
-4.858352658056287743e-02,1.323580780956258628e-03,0.000000000000000000e+00
-3.060374070877287106e-02,0.000000000000000000e+00,0.000000000000000000e+00
-2.700778353441486701e-02,4.079199302943727068e-02,0.000000000000000000e+00
-1.262395483698285949e-02,8.519395680897841328e-02,1.927635024484003201e-01
0.000000000000000000e+00,0.000000000000000000e+00,1.927635024484003201e-01
0.000000000000000000e+00,0.000000000000000000e+00,1.927635024484003201e-01
0.000000000000000000e+00,0.000000000000000000e+00,1.927635024484003201e-01
0.000000000000000000e+00,0.000000000000000000e+00,1.927635024484003201e-01
0.000000000000000000e+00,0.000000000000000000e+00,1.927635024484003201e-01
0.000000000000000000e+00,0.000000000000000000e+00,1.927635024484003201e-01
0.000000000000000000e+00,0.000000000000000000e+00,1.927635024484003201e-01
0.000000000000000000e+00,0.000000000000000000e+00,1.927635024484003201e-01
0.000000000000000000e+00,0.000000000000000000e+00,1.927635024484003201e-01
0.000000000000000000e+00,0.000000000000000000e+00,1.927635024484003201e-01
0.000000000000000000e+00,0.000000000000000000e+00,1.927635024484003201e-01
0.000000000000000000e+00,0.000000000000000000e+00,1.927635024484003201e-01
0.000000000000000000e+00,0.000000000000000000e+00,1.927635024484003201e-01
0.000000000000000000e+00,0.000000000000000000e+00,1.927635024484003201e-01
0.000000000000000000e+00,0.000000000000000000e+00,1.927635024484003201e-01
0.000000000000000000e+00,0.000000000000000000e+00,1.927635024484003201e-01
0.000000000000000000e+00,0.000000000000000000e+00,1.927635024484003201e-01
0.000000000000000000e+00,0.000000000000000000e+00,1.927635024484003201e-01
0.000000000000000000e+00,0.000000000000000000e+00,1.927635024484003201e-01
0.000000000000000000e+00,0.000000000000000000e+00,1.927635024484003201e-01
0.000000000000000000e+00,0.000000000000000000e+00,1.927635024484003201e-01
0.000000000000000000e+00,0.000000000000000000e+00,1.927635024484003201e-01
0.000000000000000000e+00,0.000000000000000000e+00,1.927635024484003201e-01
0.000000000000000000e+00,0.000000000000000000e+00,1.927635024484003201e-01
0.000000000000000000e+00,0.000000000000000000e+00,1.927635024484003201e-01
0.000000000000000000e+00,0.000000000000000000e+00,1.927635024484003201e-01
0.000000000000000000e+00,0.000000000000000000e+00,1.927635024484003201e-01
0.000000000000000000e+00,0.000000000000000000e+00,1.927635024484003201e-01
0.000000000000000000e+00,0.000000000000000000e+00,1.927635024484003201e-01
0.000000000000000000e+00,0.000000000000000000e+00,1.927635024484003201e-01
0.000000000000000000e+00,0.000000000000000000e+00,1.927635024484003201e-01
0.000000000000000000e+00,0.000000000000000000e+00,1.927635024484003201e-01
0.000000000000000000e+00,0.000000000000000000e+00,1.927635024484003201e-01
0.000000000000000000e+00,0.000000000000000000e+00,1.927635024484003201e-01
0.000000000000000000e+00,0.000000000000000000e+00,1.927635024484003201e-01
0.000000000000000000e+00,0.000000000000000000e+00,1.927635024484003201e-01
0.000000000000000000e+00,0.000000000000000000e+00,1.927635024484003201e-01
0.000000000000000000e+00,0.000000000000000000e+00,1.927635024484003201e-01
0.000000000000000000e+00,0.000000000000000000e+00,1.927635024484003201e-01
0.000000000000000000e+00,0.000000000000000000e+00,1.927635024484003201e-01
0.000000000000000000e+00,0.000000000000000000e+00,1.927635024484003201e-01
0.000000000000000000e+00,0.000000000000000000e+00,1.927635024484003201e-01
0.000000000000000000e+00,0.000000000000000000e+00,1.927635024484003201e-01
0.000000000000000000e+00,0.000000000000000000e+00,1.927635024484003201e-01
0.000000000000000000e+00,0.000000000000000000e+00,1.927635024484003201e-01
0.000000000000000000e+00,0.000000000000000000e+00,1.927635024484003201e-01
0.000000000000000000e+00,0.000000000000000000e+00,1.927635024484003201e-01
0.000000000000000000e+00,0.000000000000000000e+00,1.927635024484003201e-01
0.000000000000000000e+00,0.000000000000000000e+00,1.927635024484003201e-01
0.000000000000000000e+00,0.000000000000000000e+00,1.927635024484003201e-01
0.000000000000000000e+00,0.000000000000000000e+00,1.927635024484003201e-01
0.000000000000000000e+00,0.000000000000000000e+00,1.927635024484003201e-01
0.000000000000000000e+00,0.000000000000000000e+00,1.927635024484003201e-01
