0.000000000000000000e+00,6.545975068473790237e-02,0.000000000000000000e+00
1.240224177886212337e-01,-1.417494136197874066e-01,0.000000000000000000e+00
3.110121908552372916e-01,-4.574967116076354978e-01,0.000000000000000000e+00
4.081030345629033662e-01,-3.982940932349139374e-01,0.000000000000000000e+00
2.606687904142253043e-01,-8.501357101259594817e-02,0.000000000000000000e+00
3.052753125531316308e-02,7.039330221579802316e-02,0.000000000000000000e+00
-1.672501133343769208e-01,3.072037757066840569e-01,0.000000000000000000e+00
0.000000000000000000e+00,4.354761155142474194e-01,0.000000000000000000e+00
9.885071756811519839e-02,6.032168675702916927e-01,0.000000000000000000e+00
4.131540277838716829e-02,8.498944441232979541e-01,0.000000000000000000e+00
1.024466747424731955e-01,8.548279956543580749e-01,0.000000000000000000e+00
3.052753125531316308e-02,5.390806976665100114e-01,0.000000000000000000e+00
-5.937139810363688264e-02,2.233333996786619480e-01,0.000000000000000000e+00
-1.564622418113029434e-01,5.065909609155752613e-02,0.000000000000000000e+00
-1.420784131138708994e-01,0.000000000000000000e+00,0.000000000000000000e+00
-1.888258563805249590e-01,2.105778690519676324e-02,0.000000000000000000e+00
-1.852298992061669480e-01,-8.543522281163994439e-03,0.000000000000000000e+00
-1.996137279035989365e-01,1.323580780956258628e-03,0.000000000000000000e+00
-2.104015994266729694e-01,-3.609970750103867580e-03,0.000000000000000000e+00
-2.211894709497469746e-01,-1.347707381222412043e-02,0.000000000000000000e+00
-2.175935137753889637e-01,-1.347707381222412043e-02,0.000000000000000000e+00
-2.247854281241049301e-01,-1.347707381222412043e-02,0.000000000000000000e+00
-2.535530855189689903e-01,-8.543522281163994439e-03,0.000000000000000000e+00
-2.427652139958950128e-01,-3.321127993646462440e-02,0.000000000000000000e+00
-2.787247857394750117e-01,-3.321127993646462440e-02,0.000000000000000000e+00
-2.751288285651170562e-01,-2.827772840540449667e-02,0.000000000000000000e+00
-2.895126572625489891e-01,-5.294548606070512142e-02,0.000000000000000000e+00
-3.182803146574130770e-01,-5.787903759176525609e-02,0.000000000000000000e+00
-3.254722290061290435e-01,-7.761324371600575311e-02,0.000000000000000000e+00
-3.254722290061290435e-01,-8.748034677812600857e-02,0.000000000000000000e+00
-3.506439292266350649e-01,-8.254679524706588778e-02,0.000000000000000000e+00
-3.686237150984250643e-01,-1.318823105576671373e-01,0.000000000000000000e+00
-3.830075437958571083e-01,-1.170816559644867610e-01,0.000000000000000000e+00
-3.830075437958571083e-01,-1.565500682129677967e-01,0.000000000000000000e+00
-3.901994581445730748e-01,-1.812178258682684007e-01,0.000000000000000000e+00
-3.830075437958571083e-01,-1.960184804614487630e-01,0.000000000000000000e+00
-3.506439292266350649e-01,-1.960184804614487630e-01,0.000000000000000000e+00
-3.182803146574130770e-01,-2.157526865856893017e-01,0.000000000000000000e+00
-2.751288285651170562e-01,-2.305533411788696641e-01,0.000000000000000000e+00
-2.355732996471789908e-01,-2.058855835235690046e-01,0.000000000000000000e+00
-1.672501133343769208e-01,-1.861513773993285215e-01,0.000000000000000000e+00
-1.169067128933649058e-01,-1.910849289303886422e-01,0.000000000000000000e+00
-5.217948375492088148e-02,-1.565500682129677967e-01,0.000000000000000000e+00
-9.027997662624857172e-03,-1.368158620887272581e-01,0.000000000000000000e+00
3.052753125531316308e-02,-9.734744984024626402e-02,0.000000000000000000e+00
5.569923147581917061e-02,-7.267969218494563233e-02,0.000000000000000000e+00
7.367901734760917698e-02,-3.814483146752475212e-02,0.000000000000000000e+00
6.289114582453517177e-02,-4.307838299858487291e-02,0.000000000000000000e+00
7.727497452196718797e-02,-1.347707381222412043e-02,0.000000000000000000e+00
7.367901734760917698e-02,-8.543522281163994439e-03,0.000000000000000000e+00
5.929518865017718160e-02,1.612423537413663552e-02,0.000000000000000000e+00
3.412348842967116713e-02,1.119068384307650953e-02,0.000000000000000000e+00
4.850731712710316945e-02,3.585844149837714295e-02,0.000000000000000000e+00
4.131540277838716829e-02,2.599133843625689097e-02,0.000000000000000000e+00
4.131540277838716829e-02,1.612423537413663552e-02,0.000000000000000000e+00
3.412348842967116713e-02,3.092488996731701523e-02,0.000000000000000000e+00
3.771944560402916424e-02,3.092488996731701523e-02,0.000000000000000000e+00
4.491135995274516540e-02,3.585844149837714295e-02,0.000000000000000000e+00
4.491135995274516540e-02,1.612423537413663552e-02,0.000000000000000000e+00
5.210327430146116656e-02,3.092488996731701523e-02,0.000000000000000000e+00
4.131540277838716829e-02,3.585844149837714295e-02,0.000000000000000000e+00
4.131540277838716829e-02,4.079199302943727068e-02,0.000000000000000000e+00
4.131540277838716829e-02,2.105778690519676324e-02,0.000000000000000000e+00
4.491135995274516540e-02,2.599133843625689097e-02,0.000000000000000000e+00
3.412348842967116713e-02,2.599133843625689097e-02,0.000000000000000000e+00
4.131540277838716829e-02,1.119068384307650953e-02,0.000000000000000000e+00
2.333561690659716192e-02,3.092488996731701523e-02,0.000000000000000000e+00
4.850731712710316945e-02,1.323580780956258628e-03,0.000000000000000000e+00
1.254774538352315325e-02,2.105778690519676324e-02,0.000000000000000000e+00
1.254774538352315325e-02,3.092488996731701523e-02,0.000000000000000000e+00
1.973965973223915787e-02,0.000000000000000000e+00,0.000000000000000000e+00
8.951788209165152665e-03,1.119068384307650953e-02,0.000000000000000000e+00
-1.836083313908854061e-03,3.585844149837714295e-02,0.000000000000000000e+00
0.000000000000000000e+00,0.000000000000000000e+00,0.000000000000000000e+00
-9.027997662624857172e-03,1.323580780956258628e-03,0.000000000000000000e+00
-1.262395483698285949e-02,1.119068384307650953e-02,0.000000000000000000e+00
-9.027997662624857172e-03,2.599133843625689097e-02,0.000000000000000000e+00
-1.262395483698285949e-02,1.323580780956258628e-03,0.000000000000000000e+00
-2.700778353441486701e-02,2.105778690519676324e-02,0.000000000000000000e+00
-3.419969788313087511e-02,1.119068384307650953e-02,0.000000000000000000e+00
-2.700778353441486701e-02,1.612423537413663552e-02,0.000000000000000000e+00
-3.419969788313087511e-02,-8.543522281163994439e-03,0.000000000000000000e+00
-2.700778353441486701e-02,3.092488996731701523e-02,0.000000000000000000e+00
1.254774538352315325e-02,4.079199302943727068e-02,0.000000000000000000e+00
3.771944560402916424e-02,8.026040527791827861e-02,0.000000000000000000e+00
3.771944560402916424e-02,6.545975068473790237e-02,0.000000000000000000e+00
1.973965973223915787e-02,6.052619915367778158e-02,0.000000000000000000e+00
0.000000000000000000e+00,5.065909609155752613e-02,0.000000000000000000e+00
-1.836083313908854061e-03,-2.334417687434437241e-02,0.000000000000000000e+00
-2.341182636005686643e-02,-8.543522281163994439e-03,0.000000000000000000e+00
-5.217948375492088148e-02,-1.347707381222412043e-02,0.000000000000000000e+00
-5.937139810363688264e-02,1.323580780956258628e-03,0.000000000000000000e+00
-5.937139810363688264e-02,-3.814483146752475212e-02,0.000000000000000000e+00
-5.937139810363688264e-02,-8.543522281163994439e-03,0.000000000000000000e+00
-7.735118397542689594e-02,-4.801193452964499370e-02,0.000000000000000000e+00
-7.375522680106889883e-02,1.323580780956258628e-03,0.000000000000000000e+00
-5.217948375492088148e-02,0.000000000000000000e+00,0.000000000000000000e+00
-7.375522680106889883e-02,-8.543522281163994439e-03,0.000000000000000000e+00
-7.015926962671088785e-02,0.000000000000000000e+00,0.000000000000000000e+00
-6.296735527799489363e-02,1.119068384307650953e-02,0.000000000000000000e+00
-6.296735527799489363e-02,-3.609970750103867580e-03,0.000000000000000000e+00
-6.656331245235289074e-02,0.000000000000000000e+00,0.000000000000000000e+00
-7.735118397542689594e-02,4.079199302943727068e-02,0.000000000000000000e+00
-6.296735527799489363e-02,-8.543522281163994439e-03,0.000000000000000000e+00
-4.858352658056287743e-02,1.323580780956258628e-03,0.000000000000000000e+00
-5.217948375492088148e-02,1.119068384307650953e-02,0.000000000000000000e+00
-6.656331245235289074e-02,6.545975068473790237e-02,1.927635024484003201e-01
0.000000000000000000e+00,0.000000000000000000e+00,1.927635024484003201e-01
0.000000000000000000e+00,0.000000000000000000e+00,1.927635024484003201e-01
0.000000000000000000e+00,0.000000000000000000e+00,1.927635024484003201e-01
0.000000000000000000e+00,0.000000000000000000e+00,1.927635024484003201e-01
0.000000000000000000e+00,0.000000000000000000e+00,1.927635024484003201e-01
0.000000000000000000e+00,0.000000000000000000e+00,1.927635024484003201e-01
0.000000000000000000e+00,0.000000000000000000e+00,1.927635024484003201e-01
0.000000000000000000e+00,0.000000000000000000e+00,1.927635024484003201e-01
0.000000000000000000e+00,0.000000000000000000e+00,1.927635024484003201e-01
0.000000000000000000e+00,0.000000000000000000e+00,1.927635024484003201e-01
0.000000000000000000e+00,0.000000000000000000e+00,1.927635024484003201e-01
0.000000000000000000e+00,0.000000000000000000e+00,1.927635024484003201e-01
0.000000000000000000e+00,0.000000000000000000e+00,1.927635024484003201e-01
0.000000000000000000e+00,0.000000000000000000e+00,1.927635024484003201e-01
0.000000000000000000e+00,0.000000000000000000e+00,1.927635024484003201e-01
0.000000000000000000e+00,0.000000000000000000e+00,1.927635024484003201e-01
0.000000000000000000e+00,0.000000000000000000e+00,1.927635024484003201e-01
0.000000000000000000e+00,0.000000000000000000e+00,1.927635024484003201e-01
0.000000000000000000e+00,0.000000000000000000e+00,1.927635024484003201e-01
0.000000000000000000e+00,0.000000000000000000e+00,1.927635024484003201e-01
0.000000000000000000e+00,0.000000000000000000e+00,1.927635024484003201e-01
0.000000000000000000e+00,0.000000000000000000e+00,1.927635024484003201e-01
0.000000000000000000e+00,0.000000000000000000e+00,1.927635024484003201e-01
0.000000000000000000e+00,0.000000000000000000e+00,1.927635024484003201e-01
0.000000000000000000e+00,0.000000000000000000e+00,1.927635024484003201e-01
0.000000000000000000e+00,0.000000000000000000e+00,1.927635024484003201e-01
0.000000000000000000e+00,0.000000000000000000e+00,1.927635024484003201e-01
0.000000000000000000e+00,0.000000000000000000e+00,1.927635024484003201e-01
0.000000000000000000e+00,0.000000000000000000e+00,1.927635024484003201e-01
0.000000000000000000e+00,0.000000000000000000e+00,1.927635024484003201e-01
0.000000000000000000e+00,0.000000000000000000e+00,1.927635024484003201e-01
0.000000000000000000e+00,0.000000000000000000e+00,1.927635024484003201e-01
0.000000000000000000e+00,0.000000000000000000e+00,1.927635024484003201e-01
0.000000000000000000e+00,0.000000000000000000e+00,1.927635024484003201e-01
0.000000000000000000e+00,0.000000000000000000e+00,1.927635024484003201e-01
0.000000000000000000e+00,0.000000000000000000e+00,1.927635024484003201e-01
0.000000000000000000e+00,0.000000000000000000e+00,1.927635024484003201e-01
0.000000000000000000e+00,0.000000000000000000e+00,1.927635024484003201e-01
0.000000000000000000e+00,0.000000000000000000e+00,1.927635024484003201e-01
0.000000000000000000e+00,0.000000000000000000e+00,1.927635024484003201e-01
0.000000000000000000e+00,0.000000000000000000e+00,1.927635024484003201e-01
0.000000000000000000e+00,0.000000000000000000e+00,1.927635024484003201e-01
0.000000000000000000e+00,0.000000000000000000e+00,1.927635024484003201e-01
0.000000000000000000e+00,0.000000000000000000e+00,1.927635024484003201e-01
0.000000000000000000e+00,0.000000000000000000e+00,1.927635024484003201e-01
