3.074162336808792806e-01,-1.368158620887272581e-01,0.000000000000000000e+00
5.015979210962113743e-01,-4.130947478280942997e-01,0.000000000000000000e+00
5.735170645833713721e-01,-2.502875473031102027e-01,0.000000000000000000e+00
4.224868632603354102e-01,6.299297491920784198e-02,0.000000000000000000e+00
1.923456041014232620e-01,2.105778690519676324e-02,0.000000000000000000e+00
3.412348842967116713e-02,2.085327450854815579e-01,0.000000000000000000e+00
1.635779467065592574e-01,3.516057394862252550e-01,0.000000000000000000e+00
3.146081480295953026e-01,4.749445277627283857e-01,0.000000000000000000e+00
2.354970901937192551e-01,6.969543466604339876e-01,0.000000000000000000e+00
3.325879339013853020e-01,6.476188313498327798e-01,0.000000000000000000e+00
2.678607047629412707e-01,3.318715333619847163e-01,0.000000000000000000e+00
1.635779467065592574e-01,1.612423537413663552e-02,0.000000000000000000e+00
-6.656331245235289074e-02,-1.841062534328424469e-02,0.000000000000000000e+00
-4.498756940620488032e-02,-2.334417687434437241e-02,0.000000000000000000e+00
-1.240986272420809000e-01,-5.787903759176525609e-02,0.000000000000000000e+00
-1.312905415907969220e-01,-2.827772840540449667e-02,0.000000000000000000e+00
-1.384824559395129162e-01,-5.294548606070512142e-02,0.000000000000000000e+00
-1.600581989856609266e-01,-4.801193452964499370e-02,0.000000000000000000e+00
-1.888258563805249590e-01,-6.281258912282537687e-02,0.000000000000000000e+00
-1.852298992061669480e-01,-5.294548606070512142e-02,0.000000000000000000e+00
-2.283813852984629411e-01,-6.774614065388549766e-02,0.000000000000000000e+00
-2.607449998676850123e-01,-5.294548606070512142e-02,0.000000000000000000e+00
-2.823207429138330227e-01,-7.267969218494563233e-02,0.000000000000000000e+00
-3.362601005292030765e-01,-9.241389830918614323e-02,0.000000000000000000e+00
-3.434520148779190429e-01,-9.241389830918614323e-02,0.000000000000000000e+00
-4.225630727137951181e-01,-1.121481044334266264e-01,0.000000000000000000e+00
-4.405428585855851176e-01,-1.466829651508475274e-01,0.000000000000000000e+00
-4.765024303291651164e-01,-1.417494136197874066e-01,0.000000000000000000e+00
-4.872903018522391494e-01,-1.812178258682684007e-01,0.000000000000000000e+00
-4.944822162009551714e-01,-2.108191350546291531e-01,0.000000000000000000e+00
-4.908862590265971604e-01,-2.058855835235690046e-01,0.000000000000000000e+00
-4.333509442368691511e-01,-2.256197896478095433e-01,0.000000000000000000e+00
-3.794115866214990973e-01,-2.305533411788696641e-01,0.000000000000000000e+00
-3.182803146574130770e-01,-1.960184804614487630e-01,0.000000000000000000e+00
-1.960177707292409255e-01,-1.812178258682684007e-01,0.000000000000000000e+00
-1.240986272420809000e-01,-1.713507228061481591e-01,0.000000000000000000e+00
-6.656331245235289074e-02,-1.417494136197874066e-01,0.000000000000000000e+00
2.333561690659716192e-02,-1.269487590266070165e-01,0.000000000000000000e+00
8.806284604504119318e-02,-8.748034677812600857e-02,0.000000000000000000e+00
1.204264606142632227e-01,-6.281258912282537687e-02,0.000000000000000000e+00
1.384062464860532360e-01,-6.774614065388549766e-02,0.000000000000000000e+00
1.779617754039912458e-01,-3.814483146752475212e-02,0.000000000000000000e+00
2.031334756244972672e-01,-1.347707381222412043e-02,0.000000000000000000e+00
1.959415612757812730e-01,-1.841062534328424469e-02,0.000000000000000000e+00
1.743658182296332626e-01,-8.543522281163994439e-03,0.000000000000000000e+00
2.031334756244972672e-01,1.119068384307650953e-02,0.000000000000000000e+00
1.707698610552752516e-01,1.323580780956258628e-03,0.000000000000000000e+00
1.779617754039912458e-01,-8.543522281163994439e-03,0.000000000000000000e+00
1.635779467065592574e-01,1.612423537413663552e-02,0.000000000000000000e+00
1.815577325783492568e-01,0.000000000000000000e+00,0.000000000000000000e+00
1.779617754039912458e-01,1.323580780956258628e-03,0.000000000000000000e+00
1.887496469270652510e-01,3.092488996731701523e-02,0.000000000000000000e+00
1.959415612757812730e-01,1.612423537413663552e-02,0.000000000000000000e+00
1.959415612757812730e-01,1.119068384307650953e-02,0.000000000000000000e+00
2.067294327988552782e-01,3.585844149837714295e-02,0.000000000000000000e+00
2.103253899732132892e-01,1.119068384307650953e-02,0.000000000000000000e+00
1.815577325783492568e-01,1.119068384307650953e-02,0.000000000000000000e+00
1.995375184501392840e-01,2.599133843625689097e-02,0.000000000000000000e+00
2.031334756244972672e-01,1.119068384307650953e-02,0.000000000000000000e+00
1.959415612757812730e-01,1.119068384307650953e-02,0.000000000000000000e+00
1.707698610552752516e-01,1.119068384307650953e-02,0.000000000000000000e+00
1.923456041014232620e-01,1.323580780956258628e-03,0.000000000000000000e+00
1.779617754039912458e-01,1.612423537413663552e-02,0.000000000000000000e+00
1.671739038809172406e-01,1.323580780956258628e-03,0.000000000000000000e+00
1.635779467065592574e-01,1.323580780956258628e-03,0.000000000000000000e+00
1.527900751834852244e-01,-3.609970750103867580e-03,0.000000000000000000e+00
1.743658182296332626e-01,2.105778690519676324e-02,0.000000000000000000e+00
1.384062464860532360e-01,-1.841062534328424469e-02,0.000000000000000000e+00
1.491941180091272412e-01,-8.543522281163994439e-03,0.000000000000000000e+00
1.420022036604112470e-01,1.119068384307650953e-02,0.000000000000000000e+00
1.420022036604112470e-01,-8.543522281163994439e-03,0.000000000000000000e+00
1.384062464860532360e-01,1.612423537413663552e-02,0.000000000000000000e+00
1.707698610552752516e-01,2.599133843625689097e-02,0.000000000000000000e+00
2.067294327988552782e-01,5.065909609155752613e-02,0.000000000000000000e+00
2.175173043219292557e-01,7.039330221579802316e-02,0.000000000000000000e+00
2.139213471475712447e-01,4.079199302943727068e-02,0.000000000000000000e+00
1.420022036604112470e-01,3.092488996731701523e-02,0.000000000000000000e+00
1.563860323578432354e-01,-8.543522281163994439e-03,0.000000000000000000e+00
1.168305034399052117e-01,-1.347707381222412043e-02,0.000000000000000000e+00
1.168305034399052117e-01,-2.334417687434437241e-02,0.000000000000000000e+00
8.087093169632518508e-02,-2.334417687434437241e-02,0.000000000000000000e+00
9.885071756811519839e-02,-1.841062534328424469e-02,0.000000000000000000e+00
8.446688887068319607e-02,-4.307838299858487291e-02,0.000000000000000000e+00
6.648710299889318276e-02,-1.347707381222412043e-02,0.000000000000000000e+00
9.165880321939919029e-02,1.612423537413663552e-02,0.000000000000000000e+00
8.806284604504119318e-02,-3.609970750103867580e-03,0.000000000000000000e+00
9.165880321939919029e-02,0.000000000000000000e+00,0.000000000000000000e+00
6.289114582453517177e-02,0.000000000000000000e+00,0.000000000000000000e+00
9.525476039375720128e-02,1.323580780956258628e-03,0.000000000000000000e+00
7.367901734760917698e-02,0.000000000000000000e+00,0.000000000000000000e+00
9.165880321939919029e-02,1.119068384307650953e-02,0.000000000000000000e+00
7.727497452196718797e-02,1.323580780956258628e-03,0.000000000000000000e+00
7.727497452196718797e-02,-3.609970750103867580e-03,0.000000000000000000e+00
8.806284604504119318e-02,2.105778690519676324e-02,0.000000000000000000e+00
1.168305034399052117e-01,9.012750834003853406e-02,0.000000000000000000e+00
1.348102893116952250e-01,4.079199302943727068e-02,1.927635024484003201e-01
0.000000000000000000e+00,0.000000000000000000e+00,1.927635024484003201e-01
0.000000000000000000e+00,0.000000000000000000e+00,1.927635024484003201e-01
0.000000000000000000e+00,0.000000000000000000e+00,1.927635024484003201e-01
0.000000000000000000e+00,0.000000000000000000e+00,1.927635024484003201e-01
0.000000000000000000e+00,0.000000000000000000e+00,1.927635024484003201e-01
0.000000000000000000e+00,0.000000000000000000e+00,1.927635024484003201e-01
0.000000000000000000e+00,0.000000000000000000e+00,1.927635024484003201e-01
0.000000000000000000e+00,0.000000000000000000e+00,1.927635024484003201e-01
0.000000000000000000e+00,0.000000000000000000e+00,1.927635024484003201e-01
0.000000000000000000e+00,0.000000000000000000e+00,1.927635024484003201e-01
0.000000000000000000e+00,0.000000000000000000e+00,1.927635024484003201e-01
0.000000000000000000e+00,0.000000000000000000e+00,1.927635024484003201e-01
0.000000000000000000e+00,0.000000000000000000e+00,1.927635024484003201e-01
0.000000000000000000e+00,0.000000000000000000e+00,1.927635024484003201e-01
0.000000000000000000e+00,0.000000000000000000e+00,1.927635024484003201e-01
0.000000000000000000e+00,0.000000000000000000e+00,1.927635024484003201e-01
0.000000000000000000e+00,0.000000000000000000e+00,1.927635024484003201e-01
0.000000000000000000e+00,0.000000000000000000e+00,1.927635024484003201e-01
0.000000000000000000e+00,0.000000000000000000e+00,1.927635024484003201e-01
0.000000000000000000e+00,0.000000000000000000e+00,1.927635024484003201e-01
0.000000000000000000e+00,0.000000000000000000e+00,1.927635024484003201e-01
0.000000000000000000e+00,0.000000000000000000e+00,1.927635024484003201e-01
0.000000000000000000e+00,0.000000000000000000e+00,1.927635024484003201e-01
0.000000000000000000e+00,0.000000000000000000e+00,1.927635024484003201e-01
0.000000000000000000e+00,0.000000000000000000e+00,1.927635024484003201e-01
0.000000000000000000e+00,0.000000000000000000e+00,1.927635024484003201e-01
0.000000000000000000e+00,0.000000000000000000e+00,1.927635024484003201e-01
0.000000000000000000e+00,0.000000000000000000e+00,1.927635024484003201e-01
0.000000000000000000e+00,0.000000000000000000e+00,1.927635024484003201e-01
0.000000000000000000e+00,0.000000000000000000e+00,1.927635024484003201e-01
0.000000000000000000e+00,0.000000000000000000e+00,1.927635024484003201e-01
0.000000000000000000e+00,0.000000000000000000e+00,1.927635024484003201e-01
0.000000000000000000e+00,0.000000000000000000e+00,1.927635024484003201e-01
0.000000000000000000e+00,0.000000000000000000e+00,1.927635024484003201e-01
0.000000000000000000e+00,0.000000000000000000e+00,1.927635024484003201e-01
0.000000000000000000e+00,0.000000000000000000e+00,1.927635024484003201e-01
0.000000000000000000e+00,0.000000000000000000e+00,1.927635024484003201e-01
0.000000000000000000e+00,0.000000000000000000e+00,1.927635024484003201e-01
0.000000000000000000e+00,0.000000000000000000e+00,1.927635024484003201e-01
0.000000000000000000e+00,0.000000000000000000e+00,1.927635024484003201e-01
0.000000000000000000e+00,0.000000000000000000e+00,1.927635024484003201e-01
0.000000000000000000e+00,0.000000000000000000e+00,1.927635024484003201e-01
0.000000000000000000e+00,0.000000000000000000e+00,1.927635024484003201e-01
0.000000000000000000e+00,0.000000000000000000e+00,1.927635024484003201e-01
0.000000000000000000e+00,0.000000000000000000e+00,1.927635024484003201e-01
0.000000000000000000e+00,0.000000000000000000e+00,1.927635024484003201e-01
0.000000000000000000e+00,0.000000000000000000e+00,1.927635024484003201e-01
0.000000000000000000e+00,0.000000000000000000e+00,1.927635024484003201e-01
0.000000000000000000e+00,0.000000000000000000e+00,1.927635024484003201e-01
0.000000000000000000e+00,0.000000000000000000e+00,1.927635024484003201e-01
0.000000000000000000e+00,0.000000000000000000e+00,1.927635024484003201e-01
0.000000000000000000e+00,0.000000000000000000e+00,1.927635024484003201e-01
0.000000000000000000e+00,0.000000000000000000e+00,1.927635024484003201e-01
0.000000000000000000e+00,0.000000000000000000e+00,1.927635024484003201e-01
0.000000000000000000e+00,0.000000000000000000e+00,1.927635024484003201e-01
0.000000000000000000e+00,0.000000000000000000e+00,1.927635024484003201e-01
