3.793353771680393338e-01,3.713399456104657381e-01,0.000000000000000000e+00
4.548504778295573425e-01,4.848116308248485717e-01,0.000000000000000000e+00
4.620423921782733645e-01,6.772201405361935045e-01,0.000000000000000000e+00
4.440626063064833651e-01,7.660240680952757897e-01,0.000000000000000000e+00
5.051938782705693853e-01,4.502767701074277262e-01,0.000000000000000000e+00
2.894364478090892812e-01,1.345294721195796628e-01,0.000000000000000000e+00
5.929518865017718160e-02,1.323580780956258628e-03,0.000000000000000000e+00
0.000000000000000000e+00,-6.774614065388549766e-02,0.000000000000000000e+00
-5.937139810363688264e-02,-1.022810013713063848e-01,0.000000000000000000e+00
-8.813905549850090115e-02,-8.748034677812600857e-02,0.000000000000000000e+00
-1.205026700677229168e-01,-1.072145529023665056e-01,0.000000000000000000e+00
-1.276945844164389110e-01,-1.220152074955468957e-01,0.000000000000000000e+00
-1.564622418113029434e-01,-1.170816559644867610e-01,0.000000000000000000e+00
-1.708460705087349318e-01,-1.121481044334266264e-01,0.000000000000000000e+00
-1.672501133343769208e-01,-1.220152074955468957e-01,0.000000000000000000e+00
-1.852298992061669480e-01,-1.121481044334266264e-01,0.000000000000000000e+00
-2.032096850779569475e-01,-1.269487590266070165e-01,0.000000000000000000e+00
-1.960177707292409255e-01,-1.318823105576671373e-01,0.000000000000000000e+00
-1.960177707292409255e-01,-1.417494136197874066e-01,0.000000000000000000e+00
-2.032096850779569475e-01,-1.466829651508475274e-01,0.000000000000000000e+00
-2.283813852984629411e-01,-1.713507228061481591e-01,0.000000000000000000e+00
-2.571490426933270013e-01,-1.812178258682684007e-01,0.000000000000000000e+00
-2.643409570420430232e-01,-1.910849289303886422e-01,0.000000000000000000e+00
-2.463611711702529683e-01,-2.009520319925089116e-01,0.000000000000000000e+00
-2.571490426933270013e-01,-2.058855835235690046e-01,0.000000000000000000e+00
-2.355732996471789908e-01,-2.009520319925089116e-01,0.000000000000000000e+00
-2.104015994266729694e-01,-2.404204442409899056e-01,0.000000000000000000e+00
-1.600581989856609266e-01,-2.354868927099298126e-01,0.000000000000000000e+00
-1.312905415907969220e-01,-2.354868927099298126e-01,0.000000000000000000e+00
-6.296735527799489363e-02,-2.009520319925089116e-01,0.000000000000000000e+00
-2.700778353441486701e-02,-1.762842743372082799e-01,0.000000000000000000e+00
4.131540277838716829e-02,-1.220152074955468957e-01,0.000000000000000000e+00
1.024466747424731955e-01,-1.516165166819076482e-01,0.000000000000000000e+00
1.348102893116952250e-01,-1.614836197440279175e-01,0.000000000000000000e+00
1.348102893116952250e-01,-1.417494136197874066e-01,0.000000000000000000e+00
1.276183749629792308e-01,-1.466829651508475274e-01,0.000000000000000000e+00
1.527900751834852244e-01,-1.072145529023665056e-01,0.000000000000000000e+00
1.599819895322012464e-01,-6.281258912282537687e-02,0.000000000000000000e+00
1.563860323578432354e-01,-7.267969218494563233e-02,0.000000000000000000e+00
1.420022036604112470e-01,-4.307838299858487291e-02,0.000000000000000000e+00
1.204264606142632227e-01,-4.307838299858487291e-02,0.000000000000000000e+00
1.240224177886212337e-01,-3.321127993646462440e-02,0.000000000000000000e+00
1.240224177886212337e-01,-1.347707381222412043e-02,0.000000000000000000e+00
1.060426319168311926e-01,0.000000000000000000e+00,0.000000000000000000e+00
1.060426319168311926e-01,-2.334417687434437241e-02,0.000000000000000000e+00
1.240224177886212337e-01,0.000000000000000000e+00,0.000000000000000000e+00
1.096385890911892036e-01,-3.609970750103867580e-03,0.000000000000000000e+00
1.204264606142632227e-01,1.119068384307650953e-02,0.000000000000000000e+00
1.132345462655472146e-01,2.105778690519676324e-02,0.000000000000000000e+00
1.384062464860532360e-01,4.079199302943727068e-02,0.000000000000000000e+00
1.491941180091272412e-01,4.079199302943727068e-02,0.000000000000000000e+00
1.599819895322012464e-01,4.572554456049739841e-02,0.000000000000000000e+00
1.923456041014232620e-01,8.519395680897841328e-02,0.000000000000000000e+00
1.851536897527072678e-01,9.012750834003853406e-02,0.000000000000000000e+00
1.384062464860532360e-01,1.197288175263992865e-01,0.000000000000000000e+00
1.384062464860532360e-01,8.519395680897841328e-02,0.000000000000000000e+00
1.635779467065592574e-01,6.545975068473790237e-02,0.000000000000000000e+00
1.527900751834852244e-01,3.585844149837714295e-02,0.000000000000000000e+00
1.204264606142632227e-01,4.079199302943727068e-02,0.000000000000000000e+00
8.446688887068319607e-02,1.323580780956258628e-03,0.000000000000000000e+00
3.771944560402916424e-02,-3.609970750103867580e-03,0.000000000000000000e+00
3.052753125531316308e-02,1.119068384307650953e-02,0.000000000000000000e+00
1.614370255788115729e-02,-1.347707381222412043e-02,0.000000000000000000e+00
8.951788209165152665e-03,-8.543522281163994439e-03,0.000000000000000000e+00
-5.432040488266855725e-03,-3.609970750103867580e-03,0.000000000000000000e+00
0.000000000000000000e+00,1.119068384307650953e-02,0.000000000000000000e+00
-5.432040488266855725e-03,0.000000000000000000e+00,0.000000000000000000e+00
-1.836083313908854061e-03,1.323580780956258628e-03,0.000000000000000000e+00
1.759873860449148036e-03,1.323580780956258628e-03,0.000000000000000000e+00
-5.432040488266855725e-03,-3.609970750103867580e-03,0.000000000000000000e+00
1.759873860449148036e-03,5.559264762261764692e-02,0.000000000000000000e+00
3.052753125531316308e-02,7.039330221579802316e-02,0.000000000000000000e+00
6.289114582453517177e-02,-2.334417687434437241e-02,1.927635024484003201e-01
0.000000000000000000e+00,0.000000000000000000e+00,1.927635024484003201e-01
0.000000000000000000e+00,0.000000000000000000e+00,1.927635024484003201e-01
0.000000000000000000e+00,0.000000000000000000e+00,1.927635024484003201e-01
0.000000000000000000e+00,0.000000000000000000e+00,1.927635024484003201e-01
0.000000000000000000e+00,0.000000000000000000e+00,1.927635024484003201e-01
0.000000000000000000e+00,0.000000000000000000e+00,1.927635024484003201e-01
0.000000000000000000e+00,0.000000000000000000e+00,1.927635024484003201e-01
0.000000000000000000e+00,0.000000000000000000e+00,1.927635024484003201e-01
0.000000000000000000e+00,0.000000000000000000e+00,1.927635024484003201e-01
0.000000000000000000e+00,0.000000000000000000e+00,1.927635024484003201e-01
0.000000000000000000e+00,0.000000000000000000e+00,1.927635024484003201e-01
0.000000000000000000e+00,0.000000000000000000e+00,1.927635024484003201e-01
0.000000000000000000e+00,0.000000000000000000e+00,1.927635024484003201e-01
0.000000000000000000e+00,0.000000000000000000e+00,1.927635024484003201e-01
0.000000000000000000e+00,0.000000000000000000e+00,1.927635024484003201e-01
0.000000000000000000e+00,0.000000000000000000e+00,1.927635024484003201e-01
0.000000000000000000e+00,0.000000000000000000e+00,1.927635024484003201e-01
0.000000000000000000e+00,0.000000000000000000e+00,1.927635024484003201e-01
0.000000000000000000e+00,0.000000000000000000e+00,1.927635024484003201e-01
0.000000000000000000e+00,0.000000000000000000e+00,1.927635024484003201e-01
0.000000000000000000e+00,0.000000000000000000e+00,1.927635024484003201e-01
0.000000000000000000e+00,0.000000000000000000e+00,1.927635024484003201e-01
0.000000000000000000e+00,0.000000000000000000e+00,1.927635024484003201e-01
0.000000000000000000e+00,0.000000000000000000e+00,1.927635024484003201e-01
0.000000000000000000e+00,0.000000000000000000e+00,1.927635024484003201e-01
0.000000000000000000e+00,0.000000000000000000e+00,1.927635024484003201e-01
0.000000000000000000e+00,0.000000000000000000e+00,1.927635024484003201e-01
0.000000000000000000e+00,0.000000000000000000e+00,1.927635024484003201e-01
0.000000000000000000e+00,0.000000000000000000e+00,1.927635024484003201e-01
0.000000000000000000e+00,0.000000000000000000e+00,1.927635024484003201e-01
0.000000000000000000e+00,0.000000000000000000e+00,1.927635024484003201e-01
0.000000000000000000e+00,0.000000000000000000e+00,1.927635024484003201e-01
0.000000000000000000e+00,0.000000000000000000e+00,1.927635024484003201e-01
0.000000000000000000e+00,0.000000000000000000e+00,1.927635024484003201e-01
0.000000000000000000e+00,0.000000000000000000e+00,1.927635024484003201e-01
0.000000000000000000e+00,0.000000000000000000e+00,1.927635024484003201e-01
0.000000000000000000e+00,0.000000000000000000e+00,1.927635024484003201e-01
0.000000000000000000e+00,0.000000000000000000e+00,1.927635024484003201e-01
0.000000000000000000e+00,0.000000000000000000e+00,1.927635024484003201e-01
0.000000000000000000e+00,0.000000000000000000e+00,1.927635024484003201e-01
0.000000000000000000e+00,0.000000000000000000e+00,1.927635024484003201e-01
0.000000000000000000e+00,0.000000000000000000e+00,1.927635024484003201e-01
0.000000000000000000e+00,0.000000000000000000e+00,1.927635024484003201e-01
0.000000000000000000e+00,0.000000000000000000e+00,1.927635024484003201e-01
0.000000000000000000e+00,0.000000000000000000e+00,1.927635024484003201e-01
0.000000000000000000e+00,0.000000000000000000e+00,1.927635024484003201e-01
0.000000000000000000e+00,0.000000000000000000e+00,1.927635024484003201e-01
0.000000000000000000e+00,0.000000000000000000e+00,1.927635024484003201e-01
0.000000000000000000e+00,0.000000000000000000e+00,1.927635024484003201e-01
0.000000000000000000e+00,0.000000000000000000e+00,1.927635024484003201e-01
0.000000000000000000e+00,0.000000000000000000e+00,1.927635024484003201e-01
0.000000000000000000e+00,0.000000000000000000e+00,1.927635024484003201e-01
0.000000000000000000e+00,0.000000000000000000e+00,1.927635024484003201e-01
0.000000000000000000e+00,0.000000000000000000e+00,1.927635024484003201e-01
0.000000000000000000e+00,0.000000000000000000e+00,1.927635024484003201e-01
0.000000000000000000e+00,0.000000000000000000e+00,1.927635024484003201e-01
0.000000000000000000e+00,0.000000000000000000e+00,1.927635024484003201e-01
0.000000000000000000e+00,0.000000000000000000e+00,1.927635024484003201e-01
0.000000000000000000e+00,0.000000000000000000e+00,1.927635024484003201e-01
0.000000000000000000e+00,0.000000000000000000e+00,1.927635024484003201e-01
0.000000000000000000e+00,0.000000000000000000e+00,1.927635024484003201e-01
0.000000000000000000e+00,0.000000000000000000e+00,1.927635024484003201e-01
0.000000000000000000e+00,0.000000000000000000e+00,1.927635024484003201e-01
0.000000000000000000e+00,0.000000000000000000e+00,1.927635024484003201e-01
0.000000000000000000e+00,0.000000000000000000e+00,1.927635024484003201e-01
0.000000000000000000e+00,0.000000000000000000e+00,1.927635024484003201e-01
0.000000000000000000e+00,0.000000000000000000e+00,1.927635024484003201e-01
0.000000000000000000e+00,0.000000000000000000e+00,1.927635024484003201e-01
0.000000000000000000e+00,0.000000000000000000e+00,1.927635024484003201e-01
0.000000000000000000e+00,0.000000000000000000e+00,1.927635024484003201e-01
0.000000000000000000e+00,0.000000000000000000e+00,1.927635024484003201e-01
0.000000000000000000e+00,0.000000000000000000e+00,1.927635024484003201e-01
0.000000000000000000e+00,0.000000000000000000e+00,1.927635024484003201e-01
0.000000000000000000e+00,0.000000000000000000e+00,1.927635024484003201e-01
0.000000000000000000e+00,0.000000000000000000e+00,1.927635024484003201e-01
0.000000000000000000e+00,0.000000000000000000e+00,1.927635024484003201e-01
0.000000000000000000e+00,0.000000000000000000e+00,1.927635024484003201e-01
0.000000000000000000e+00,0.000000000000000000e+00,1.927635024484003201e-01
0.000000000000000000e+00,0.000000000000000000e+00,1.927635024484003201e-01
