5.210327430146116656e-02,2.105778690519676324e-02,0.000000000000000000e+00
7.008306017325117987e-02,-1.664171712750880383e-01,0.000000000000000000e+00
2.426890045424352493e-01,-4.821644692629361018e-01,0.000000000000000000e+00
4.476585634808413761e-01,-5.709683968220183869e-01,0.000000000000000000e+00
2.175173043219292557e-01,-2.576878745997003284e-01,0.000000000000000000e+00
1.254774538352315325e-02,2.599133843625689097e-02,0.000000000000000000e+00
-2.175935137753889637e-01,2.233333996786619480e-01,0.000000000000000000e+00
-1.133107557190069226e-01,3.910741517347062213e-01,0.000000000000000000e+00
1.759873860449148036e-03,5.686820068528707361e-01,0.000000000000000000e+00
0.000000000000000000e+00,8.498944441232979541e-01,0.000000000000000000e+00
-9.027997662624857172e-03,9.238977170891997659e-01,0.000000000000000000e+00
-9.173501267285891214e-02,6.574859344119530213e-01,0.000000000000000000e+00
1.254774538352315325e-02,3.417386364241049579e-01,0.000000000000000000e+00
-1.205026700677229168e-01,2.599133843625689097e-02,0.000000000000000000e+00
-1.492703274625869214e-01,-8.543522281163994439e-03,0.000000000000000000e+00
-1.636541561600189376e-01,-1.347707381222412043e-02,0.000000000000000000e+00
-1.564622418113029434e-01,-3.814483146752475212e-02,0.000000000000000000e+00
-1.960177707292409255e-01,-2.827772840540449667e-02,0.000000000000000000e+00
-1.888258563805249590e-01,-3.321127993646462440e-02,0.000000000000000000e+00
-1.816339420318089370e-01,-3.321127993646462440e-02,0.000000000000000000e+00
-1.816339420318089370e-01,-2.827772840540449667e-02,0.000000000000000000e+00
-2.139975566010309804e-01,-6.774614065388549766e-02,0.000000000000000000e+00
-2.427652139958950128e-01,-5.294548606070512142e-02,0.000000000000000000e+00
-1.888258563805249590e-01,-3.321127993646462440e-02,0.000000000000000000e+00
-2.463611711702529683e-01,-4.801193452964499370e-02,0.000000000000000000e+00
-2.211894709497469746e-01,-8.254679524706588778e-02,0.000000000000000000e+00
-2.679369142164010342e-01,-8.254679524706588778e-02,0.000000000000000000e+00
-2.715328713907590452e-01,-1.269487590266070165e-01,0.000000000000000000e+00
-3.003005287856230221e-01,-1.072145529023665056e-01,0.000000000000000000e+00
-2.535530855189689903e-01,-1.565500682129677967e-01,0.000000000000000000e+00
-3.146843574830550661e-01,-1.516165166819076482e-01,0.000000000000000000e+00
-2.643409570420430232e-01,-1.762842743372082799e-01,0.000000000000000000e+00
-2.319773424728210076e-01,-1.861513773993285215e-01,0.000000000000000000e+00
-2.535530855189689903e-01,-2.305533411788696641e-01,0.000000000000000000e+00
-2.391692568215370018e-01,-2.650882018962905651e-01,0.000000000000000000e+00
-2.391692568215370018e-01,-2.700217534273506859e-01,0.000000000000000000e+00
-5.577544092927888553e-02,-2.305533411788696641e-01,0.000000000000000000e+00
-8.454309832414290404e-02,-2.453539957720500542e-01,0.000000000000000000e+00
-5.937139810363688264e-02,-2.305533411788696641e-01,0.000000000000000000e+00
2.693157408095516250e-02,-2.601546503652304443e-01,0.000000000000000000e+00
-5.217948375492088148e-02,-2.206862381167494225e-01,0.000000000000000000e+00
1.599819895322012464e-01,-1.368158620887272581e-01,0.000000000000000000e+00
2.693157408095516250e-02,-1.269487590266070165e-01,0.000000000000000000e+00
1.635779467065592574e-01,-1.022810013713063848e-01,0.000000000000000000e+00
1.060426319168311926e-01,-5.787903759176525609e-02,0.000000000000000000e+00
1.204264606142632227e-01,-4.307838299858487291e-02,0.000000000000000000e+00
9.885071756811519839e-02,-5.294548606070512142e-02,0.000000000000000000e+00
9.165880321939919029e-02,-8.543522281163994439e-03,0.000000000000000000e+00
1.060426319168311926e-01,-2.827772840540449667e-02,0.000000000000000000e+00
5.210327430146116656e-02,-8.543522281163994439e-03,0.000000000000000000e+00
8.446688887068319607e-02,2.599133843625689097e-02,0.000000000000000000e+00
9.525476039375720128e-02,1.119068384307650953e-02,0.000000000000000000e+00
3.771944560402916424e-02,0.000000000000000000e+00,0.000000000000000000e+00
8.806284604504119318e-02,1.612423537413663552e-02,0.000000000000000000e+00
1.759873860449148036e-03,2.599133843625689097e-02,0.000000000000000000e+00
7.367901734760917698e-02,2.599133843625689097e-02,0.000000000000000000e+00
4.131540277838716829e-02,1.612423537413663552e-02,0.000000000000000000e+00
0.000000000000000000e+00,1.612423537413663552e-02,0.000000000000000000e+00
1.132345462655472146e-01,5.559264762261764692e-02,0.000000000000000000e+00
3.412348842967116713e-02,5.065909609155752613e-02,0.000000000000000000e+00
3.771944560402916424e-02,0.000000000000000000e+00,0.000000000000000000e+00
1.759873860449148036e-03,3.092488996731701523e-02,0.000000000000000000e+00
7.367901734760917698e-02,6.545975068473790237e-02,0.000000000000000000e+00
3.052753125531316308e-02,2.105778690519676324e-02,0.000000000000000000e+00
4.491135995274516540e-02,4.572554456049739841e-02,0.000000000000000000e+00
1.254774538352315325e-02,2.599133843625689097e-02,0.000000000000000000e+00
3.412348842967116713e-02,4.079199302943727068e-02,0.000000000000000000e+00
1.254774538352315325e-02,2.599133843625689097e-02,0.000000000000000000e+00
3.052753125531316308e-02,2.599133843625689097e-02,0.000000000000000000e+00
3.771944560402916424e-02,4.079199302943727068e-02,0.000000000000000000e+00
-1.836083313908854061e-03,2.599133843625689097e-02,0.000000000000000000e+00
8.951788209165152665e-03,4.572554456049739841e-02,0.000000000000000000e+00
4.131540277838716829e-02,3.585844149837714295e-02,0.000000000000000000e+00
-2.700778353441486701e-02,8.026040527791827861e-02,0.000000000000000000e+00
9.885071756811519839e-02,1.147952659953391658e-01,0.000000000000000000e+00
7.727497452196718797e-02,8.519395680897841328e-02,0.000000000000000000e+00
8.446688887068319607e-02,1.147952659953391658e-01,0.000000000000000000e+00
1.096385890911892036e-01,1.197288175263992865e-01,0.000000000000000000e+00
1.024466747424731955e-01,9.999461140215877564e-02,0.000000000000000000e+00
6.648710299889318276e-02,8.519395680897841328e-02,0.000000000000000000e+00
3.052753125531316308e-02,3.585844149837714295e-02,0.000000000000000000e+00
4.131540277838716829e-02,1.612423537413663552e-02,0.000000000000000000e+00
2.693157408095516250e-02,4.572554456049739841e-02,0.000000000000000000e+00
1.759873860449148036e-03,6.545975068473790237e-02,0.000000000000000000e+00
2.333561690659716192e-02,2.105778690519676324e-02,0.000000000000000000e+00
-1.262395483698285949e-02,2.599133843625689097e-02,0.000000000000000000e+00
1.614370255788115729e-02,8.026040527791827861e-02,0.000000000000000000e+00
4.131540277838716829e-02,8.026040527791827861e-02,0.000000000000000000e+00
4.491135995274516540e-02,6.545975068473790237e-02,0.000000000000000000e+00
-1.836083313908854061e-03,7.532685374685815782e-02,0.000000000000000000e+00
-5.432040488266855725e-03,9.012750834003853406e-02,0.000000000000000000e+00
4.491135995274516540e-02,9.506105987109865485e-02,0.000000000000000000e+00
3.412348842967116713e-02,1.147952659953391658e-01,0.000000000000000000e+00
1.614370255788115729e-02,9.999461140215877564e-02,0.000000000000000000e+00
4.850731712710316945e-02,1.049281629332189242e-01,0.000000000000000000e+00
3.052753125531316308e-02,1.049281629332189242e-01,0.000000000000000000e+00
1.973965973223915787e-02,1.197288175263992865e-01,0.000000000000000000e+00
6.648710299889318276e-02,1.838649874301809262e-01,1.927635024484003201e-01
0.000000000000000000e+00,0.000000000000000000e+00,1.927635024484003201e-01
0.000000000000000000e+00,0.000000000000000000e+00,1.927635024484003201e-01
0.000000000000000000e+00,0.000000000000000000e+00,1.927635024484003201e-01
0.000000000000000000e+00,0.000000000000000000e+00,1.927635024484003201e-01
0.000000000000000000e+00,0.000000000000000000e+00,1.927635024484003201e-01
0.000000000000000000e+00,0.000000000000000000e+00,1.927635024484003201e-01
0.000000000000000000e+00,0.000000000000000000e+00,1.927635024484003201e-01
0.000000000000000000e+00,0.000000000000000000e+00,1.927635024484003201e-01
0.000000000000000000e+00,0.000000000000000000e+00,1.927635024484003201e-01
0.000000000000000000e+00,0.000000000000000000e+00,1.927635024484003201e-01
0.000000000000000000e+00,0.000000000000000000e+00,1.927635024484003201e-01
0.000000000000000000e+00,0.000000000000000000e+00,1.927635024484003201e-01
0.000000000000000000e+00,0.000000000000000000e+00,1.927635024484003201e-01
0.000000000000000000e+00,0.000000000000000000e+00,1.927635024484003201e-01
0.000000000000000000e+00,0.000000000000000000e+00,1.927635024484003201e-01
0.000000000000000000e+00,0.000000000000000000e+00,1.927635024484003201e-01
0.000000000000000000e+00,0.000000000000000000e+00,1.927635024484003201e-01
0.000000000000000000e+00,0.000000000000000000e+00,1.927635024484003201e-01
0.000000000000000000e+00,0.000000000000000000e+00,1.927635024484003201e-01
0.000000000000000000e+00,0.000000000000000000e+00,1.927635024484003201e-01
0.000000000000000000e+00,0.000000000000000000e+00,1.927635024484003201e-01
0.000000000000000000e+00,0.000000000000000000e+00,1.927635024484003201e-01
0.000000000000000000e+00,0.000000000000000000e+00,1.927635024484003201e-01
0.000000000000000000e+00,0.000000000000000000e+00,1.927635024484003201e-01
0.000000000000000000e+00,0.000000000000000000e+00,1.927635024484003201e-01
0.000000000000000000e+00,0.000000000000000000e+00,1.927635024484003201e-01
0.000000000000000000e+00,0.000000000000000000e+00,1.927635024484003201e-01
0.000000000000000000e+00,0.000000000000000000e+00,1.927635024484003201e-01
0.000000000000000000e+00,0.000000000000000000e+00,1.927635024484003201e-01
0.000000000000000000e+00,0.000000000000000000e+00,1.927635024484003201e-01
0.000000000000000000e+00,0.000000000000000000e+00,1.927635024484003201e-01
0.000000000000000000e+00,0.000000000000000000e+00,1.927635024484003201e-01
0.000000000000000000e+00,0.000000000000000000e+00,1.927635024484003201e-01
0.000000000000000000e+00,0.000000000000000000e+00,1.927635024484003201e-01
0.000000000000000000e+00,0.000000000000000000e+00,1.927635024484003201e-01
0.000000000000000000e+00,0.000000000000000000e+00,1.927635024484003201e-01
0.000000000000000000e+00,0.000000000000000000e+00,1.927635024484003201e-01
0.000000000000000000e+00,0.000000000000000000e+00,1.927635024484003201e-01
0.000000000000000000e+00,0.000000000000000000e+00,1.927635024484003201e-01
0.000000000000000000e+00,0.000000000000000000e+00,1.927635024484003201e-01
0.000000000000000000e+00,0.000000000000000000e+00,1.927635024484003201e-01
0.000000000000000000e+00,0.000000000000000000e+00,1.927635024484003201e-01
0.000000000000000000e+00,0.000000000000000000e+00,1.927635024484003201e-01
0.000000000000000000e+00,0.000000000000000000e+00,1.927635024484003201e-01
0.000000000000000000e+00,0.000000000000000000e+00,1.927635024484003201e-01
0.000000000000000000e+00,0.000000000000000000e+00,1.927635024484003201e-01
0.000000000000000000e+00,0.000000000000000000e+00,1.927635024484003201e-01
0.000000000000000000e+00,0.000000000000000000e+00,1.927635024484003201e-01
0.000000000000000000e+00,0.000000000000000000e+00,1.927635024484003201e-01
0.000000000000000000e+00,0.000000000000000000e+00,1.927635024484003201e-01
0.000000000000000000e+00,0.000000000000000000e+00,1.927635024484003201e-01
0.000000000000000000e+00,0.000000000000000000e+00,1.927635024484003201e-01
0.000000000000000000e+00,0.000000000000000000e+00,1.927635024484003201e-01
0.000000000000000000e+00,0.000000000000000000e+00,1.927635024484003201e-01
