4.131540277838716829e-02,0.000000000000000000e+00,0.000000000000000000e+00
1.312143321373372140e-01,-9.734744984024626402e-02,0.000000000000000000e+00
3.397798482501013240e-01,-4.130947478280942997e-01,0.000000000000000000e+00
5.681231288218344666e-01,-3.588256809864329711e-01,0.000000000000000000e+00
3.379818696629223185e-01,-4.554515876411493330e-02,0.000000000000000000e+00
1.312143321373372140e-01,7.532685374685815782e-02,0.000000000000000000e+00
-9.892692702157489248e-02,1.937320904923011677e-01,0.000000000000000000e+00
-1.456743702882289104e-01,3.762734971415258589e-01,0.000000000000000000e+00
8.266891028350419057e-02,4.848116308248485717e-01,0.000000000000000000e+00
7.008306017325117987e-02,6.722865890051332727e-01,0.000000000000000000e+00
1.254774538352315325e-02,8.400273410611777125e-01,0.000000000000000000e+00
3.771944560402916424e-02,6.278846252255922966e-01,0.000000000000000000e+00
8.446688887068319607e-02,3.121373272377442332e-01,0.000000000000000000e+00
0.000000000000000000e+00,1.119068384307650953e-02,0.000000000000000000e+00
-3.419969788313087511e-02,1.119068384307650953e-02,0.000000000000000000e+00
-4.858352658056287743e-02,-2.334417687434437241e-02,0.000000000000000000e+00
-4.858352658056287743e-02,-2.827772840540449667e-02,0.000000000000000000e+00
-1.621991201134086180e-02,-1.841062534328424469e-02,0.000000000000000000e+00
-8.454309832414290404e-02,-3.321127993646462440e-02,0.000000000000000000e+00
-9.892692702157489248e-02,-4.801193452964499370e-02,0.000000000000000000e+00
6.289114582453517177e-02,1.119068384307650953e-02,0.000000000000000000e+00
-1.169067128933649058e-01,-3.814483146752475212e-02,0.000000000000000000e+00
-7.375522680106889883e-02,-3.814483146752475212e-02,0.000000000000000000e+00
-6.296735527799489363e-02,-1.841062534328424469e-02,0.000000000000000000e+00
-4.139161223184688321e-02,-3.814483146752475212e-02,0.000000000000000000e+00
-8.454309832414290404e-02,-5.294548606070512142e-02,0.000000000000000000e+00
-9.173501267285891214e-02,-6.774614065388549766e-02,0.000000000000000000e+00
-1.025228841959329035e-01,-3.814483146752475212e-02,0.000000000000000000e+00
-5.217948375492088148e-02,-4.801193452964499370e-02,0.000000000000000000e+00
-1.061188413702909145e-01,-7.267969218494563233e-02,0.000000000000000000e+00
-1.097147985446489116e-01,-9.241389830918614323e-02,0.000000000000000000e+00
-9.533096984721690925e-02,-1.170816559644867610e-01,0.000000000000000000e+00
-7.735118397542689594e-02,-1.170816559644867610e-01,0.000000000000000000e+00
-1.348864987651549052e-01,-1.516165166819076482e-01,0.000000000000000000e+00
-8.454309832414290404e-02,-1.269487590266070165e-01,0.000000000000000000e+00
8.951788209165152665e-03,-1.220152074955468957e-01,0.000000000000000000e+00
-1.621991201134086180e-02,-1.565500682129677967e-01,0.000000000000000000e+00
1.614370255788115729e-02,-1.614836197440279175e-01,0.000000000000000000e+00
6.648710299889318276e-02,-1.664171712750880383e-01,0.000000000000000000e+00
9.165880321939919029e-02,-1.565500682129677967e-01,0.000000000000000000e+00
1.312143321373372140e-01,-1.417494136197874066e-01,0.000000000000000000e+00
2.606687904142253043e-01,-7.267969218494563233e-02,0.000000000000000000e+00
2.139213471475712447e-01,-1.022810013713063848e-01,0.000000000000000000e+00
2.211132614962872667e-01,-3.814483146752475212e-02,0.000000000000000000e+00
3.074162336808792806e-01,-1.347707381222412043e-02,0.000000000000000000e+00
2.714566619372992817e-01,-1.841062534328424469e-02,0.000000000000000000e+00
2.786485762860153037e-01,-1.347707381222412043e-02,0.000000000000000000e+00
2.570728332398672933e-01,1.612423537413663552e-02,0.000000000000000000e+00
3.074162336808792806e-01,6.545975068473790237e-02,0.000000000000000000e+00
3.289919767270273465e-01,6.545975068473790237e-02,0.000000000000000000e+00
2.894364478090892812e-01,5.559264762261764692e-02,0.000000000000000000e+00
2.498809188911512713e-01,5.065909609155752613e-02,0.000000000000000000e+00
2.750526191116572927e-01,7.532685374685815782e-02,0.000000000000000000e+00
2.498809188911512713e-01,5.559264762261764692e-02,0.000000000000000000e+00
2.714566619372992817e-01,5.065909609155752613e-02,0.000000000000000000e+00
2.750526191116572927e-01,8.026040527791827861e-02,0.000000000000000000e+00
2.714566619372992817e-01,6.545975068473790237e-02,0.000000000000000000e+00
2.426890045424352493e-01,2.599133843625689097e-02,0.000000000000000000e+00
2.678607047629412707e-01,6.052619915367778158e-02,0.000000000000000000e+00
2.462849617167932603e-01,6.052619915367778158e-02,0.000000000000000000e+00
2.786485762860153037e-01,6.545975068473790237e-02,0.000000000000000000e+00
2.283051758450032886e-01,6.052619915367778158e-02,0.000000000000000000e+00
2.103253899732132892e-01,4.079199302943727068e-02,0.000000000000000000e+00
2.247092186706452777e-01,6.052619915367778158e-02,0.000000000000000000e+00
2.822445334603732592e-01,5.065909609155752613e-02,0.000000000000000000e+00
1.923456041014232620e-01,5.065909609155752613e-02,0.000000000000000000e+00
2.103253899732132892e-01,4.572554456049739841e-02,0.000000000000000000e+00
1.815577325783492568e-01,5.559264762261764692e-02,0.000000000000000000e+00
2.247092186706452777e-01,3.585844149837714295e-02,0.000000000000000000e+00
2.175173043219292557e-01,5.559264762261764692e-02,0.000000000000000000e+00
1.384062464860532360e-01,2.105778690519676324e-02,0.000000000000000000e+00
1.887496469270652510e-01,6.052619915367778158e-02,0.000000000000000000e+00
2.031334756244972672e-01,3.092488996731701523e-02,0.000000000000000000e+00
1.743658182296332626e-01,8.519395680897841328e-02,0.000000000000000000e+00
1.815577325783492568e-01,3.092488996731701523e-02,0.000000000000000000e+00
2.354970901937192551e-01,9.012750834003853406e-02,0.000000000000000000e+00
1.995375184501392840e-01,9.012750834003853406e-02,0.000000000000000000e+00
2.319011330193612441e-01,3.585844149837714295e-02,0.000000000000000000e+00
1.635779467065592574e-01,3.585844149837714295e-02,0.000000000000000000e+00
1.959415612757812730e-01,4.079199302943727068e-02,0.000000000000000000e+00
1.168305034399052117e-01,1.323580780956258628e-03,0.000000000000000000e+00
1.276183749629792308e-01,1.323580780956258628e-03,0.000000000000000000e+00
1.455981608347692302e-01,-3.609970750103867580e-03,0.000000000000000000e+00
1.060426319168311926e-01,1.323580780956258628e-03,0.000000000000000000e+00
1.563860323578432354e-01,-3.609970750103867580e-03,0.000000000000000000e+00
6.648710299889318276e-02,0.000000000000000000e+00,0.000000000000000000e+00
1.491941180091272412e-01,3.092488996731701523e-02,0.000000000000000000e+00
7.008306017325117987e-02,3.092488996731701523e-02,0.000000000000000000e+00
8.806284604504119318e-02,1.612423537413663552e-02,0.000000000000000000e+00
4.491135995274516540e-02,7.039330221579802316e-02,0.000000000000000000e+00
1.384062464860532360e-01,3.092488996731701523e-02,0.000000000000000000e+00
1.024466747424731955e-01,-8.543522281163994439e-03,0.000000000000000000e+00
4.850731712710316945e-02,1.612423537413663552e-02,0.000000000000000000e+00
1.204264606142632227e-01,4.572554456049739841e-02,0.000000000000000000e+00
9.525476039375720128e-02,5.065909609155752613e-02,0.000000000000000000e+00
6.648710299889318276e-02,5.559264762261764692e-02,0.000000000000000000e+00
7.008306017325117987e-02,3.585844149837714295e-02,0.000000000000000000e+00
6.648710299889318276e-02,1.049281629332189242e-01,0.000000000000000000e+00
1.959415612757812730e-01,8.026040527791827861e-02,1.927635024484003201e-01
0.000000000000000000e+00,0.000000000000000000e+00,1.927635024484003201e-01
0.000000000000000000e+00,0.000000000000000000e+00,1.927635024484003201e-01
0.000000000000000000e+00,0.000000000000000000e+00,1.927635024484003201e-01
0.000000000000000000e+00,0.000000000000000000e+00,1.927635024484003201e-01
0.000000000000000000e+00,0.000000000000000000e+00,1.927635024484003201e-01
0.000000000000000000e+00,0.000000000000000000e+00,1.927635024484003201e-01
0.000000000000000000e+00,0.000000000000000000e+00,1.927635024484003201e-01
0.000000000000000000e+00,0.000000000000000000e+00,1.927635024484003201e-01
0.000000000000000000e+00,0.000000000000000000e+00,1.927635024484003201e-01
0.000000000000000000e+00,0.000000000000000000e+00,1.927635024484003201e-01
0.000000000000000000e+00,0.000000000000000000e+00,1.927635024484003201e-01
0.000000000000000000e+00,0.000000000000000000e+00,1.927635024484003201e-01
0.000000000000000000e+00,0.000000000000000000e+00,1.927635024484003201e-01
0.000000000000000000e+00,0.000000000000000000e+00,1.927635024484003201e-01
0.000000000000000000e+00,0.000000000000000000e+00,1.927635024484003201e-01
0.000000000000000000e+00,0.000000000000000000e+00,1.927635024484003201e-01
0.000000000000000000e+00,0.000000000000000000e+00,1.927635024484003201e-01
0.000000000000000000e+00,0.000000000000000000e+00,1.927635024484003201e-01
0.000000000000000000e+00,0.000000000000000000e+00,1.927635024484003201e-01
0.000000000000000000e+00,0.000000000000000000e+00,1.927635024484003201e-01
0.000000000000000000e+00,0.000000000000000000e+00,1.927635024484003201e-01
0.000000000000000000e+00,0.000000000000000000e+00,1.927635024484003201e-01
0.000000000000000000e+00,0.000000000000000000e+00,1.927635024484003201e-01
0.000000000000000000e+00,0.000000000000000000e+00,1.927635024484003201e-01
0.000000000000000000e+00,0.000000000000000000e+00,1.927635024484003201e-01
0.000000000000000000e+00,0.000000000000000000e+00,1.927635024484003201e-01
0.000000000000000000e+00,0.000000000000000000e+00,1.927635024484003201e-01
0.000000000000000000e+00,0.000000000000000000e+00,1.927635024484003201e-01
0.000000000000000000e+00,0.000000000000000000e+00,1.927635024484003201e-01
0.000000000000000000e+00,0.000000000000000000e+00,1.927635024484003201e-01
0.000000000000000000e+00,0.000000000000000000e+00,1.927635024484003201e-01
0.000000000000000000e+00,0.000000000000000000e+00,1.927635024484003201e-01
0.000000000000000000e+00,0.000000000000000000e+00,1.927635024484003201e-01
0.000000000000000000e+00,0.000000000000000000e+00,1.927635024484003201e-01
0.000000000000000000e+00,0.000000000000000000e+00,1.927635024484003201e-01
0.000000000000000000e+00,0.000000000000000000e+00,1.927635024484003201e-01
0.000000000000000000e+00,0.000000000000000000e+00,1.927635024484003201e-01
0.000000000000000000e+00,0.000000000000000000e+00,1.927635024484003201e-01
0.000000000000000000e+00,0.000000000000000000e+00,1.927635024484003201e-01
0.000000000000000000e+00,0.000000000000000000e+00,1.927635024484003201e-01
0.000000000000000000e+00,0.000000000000000000e+00,1.927635024484003201e-01
0.000000000000000000e+00,0.000000000000000000e+00,1.927635024484003201e-01
0.000000000000000000e+00,0.000000000000000000e+00,1.927635024484003201e-01
0.000000000000000000e+00,0.000000000000000000e+00,1.927635024484003201e-01
0.000000000000000000e+00,0.000000000000000000e+00,1.927635024484003201e-01
0.000000000000000000e+00,0.000000000000000000e+00,1.927635024484003201e-01
0.000000000000000000e+00,0.000000000000000000e+00,1.927635024484003201e-01
0.000000000000000000e+00,0.000000000000000000e+00,1.927635024484003201e-01
0.000000000000000000e+00,0.000000000000000000e+00,1.927635024484003201e-01
0.000000000000000000e+00,0.000000000000000000e+00,1.927635024484003201e-01
0.000000000000000000e+00,0.000000000000000000e+00,1.927635024484003201e-01
0.000000000000000000e+00,0.000000000000000000e+00,1.927635024484003201e-01
0.000000000000000000e+00,0.000000000000000000e+00,1.927635024484003201e-01
