1.312143321373372140e-01,-6.774614065388549766e-02,0.000000000000000000e+00
3.541636769475333124e-01,-3.834934386417335750e-01,0.000000000000000000e+00
5.825069575192663995e-01,-4.032276447659741136e-01,0.000000000000000000e+00
3.523656983603543069e-01,-8.994712254365606896e-02,0.000000000000000000e+00
1.384062464860532360e-01,6.052619915367778158e-02,0.000000000000000000e+00
-9.173501267285891214e-02,2.085327450854815579e-01,0.000000000000000000e+00
4.491135995274516540e-02,3.713399456104657381e-01,0.000000000000000000e+00
1.491941180091272412e-01,4.798780792937885065e-01,0.000000000000000000e+00
1.168305034399052117e-01,7.462898619710353065e-01,0.000000000000000000e+00
1.384062464860532360e-01,8.005589288126965242e-01,0.000000000000000000e+00
7.727497452196718797e-02,4.946787338869688688e-01,0.000000000000000000e+00
4.850731712710316945e-02,1.789314358991208054e-01,0.000000000000000000e+00
-8.454309832414290404e-02,-3.321127993646462440e-02,0.000000000000000000e+00
-1.384824559395129162e-01,4.572554456049739841e-02,0.000000000000000000e+00
-1.276945844164389110e-01,-5.294548606070512142e-02,0.000000000000000000e+00
-1.708460705087349318e-01,1.612423537413663552e-02,0.000000000000000000e+00
-1.240986272420809000e-01,-3.321127993646462440e-02,0.000000000000000000e+00
-1.420784131138708994e-01,3.092488996731701523e-02,0.000000000000000000e+00
-1.061188413702909145e-01,-6.281258912282537687e-02,0.000000000000000000e+00
-1.564622418113029434e-01,-3.814483146752475212e-02,0.000000000000000000e+00
-1.780379848574509538e-01,-6.774614065388549766e-02,0.000000000000000000e+00
-2.139975566010309804e-01,-6.774614065388549766e-02,0.000000000000000000e+00
-2.499571283446109793e-01,-8.254679524706588778e-02,0.000000000000000000e+00
-2.643409570420430232e-01,-9.734744984024626402e-02,0.000000000000000000e+00
-3.074924431343390441e-01,-9.734744984024626402e-02,0.000000000000000000e+00
-2.931086144369070001e-01,-1.121481044334266264e-01,0.000000000000000000e+00
-3.218762718317710325e-01,-1.170816559644867610e-01,0.000000000000000000e+00
-3.578358435753510314e-01,-1.121481044334266264e-01,0.000000000000000000e+00
-3.830075437958571083e-01,-9.241389830918614323e-02,0.000000000000000000e+00
-3.973913724932890412e-01,-1.269487590266070165e-01,0.000000000000000000e+00
-4.333509442368691511e-01,-7.761324371600575311e-02,0.000000000000000000e+00
-3.937954153189310857e-01,-1.861513773993285215e-01,0.000000000000000000e+00
-4.261590298881531291e-01,-1.762842743372082799e-01,0.000000000000000000e+00
-4.225630727137951181e-01,-1.910849289303886422e-01,0.000000000000000000e+00
-4.153711583650790962e-01,-2.354868927099298126e-01,0.000000000000000000e+00
-4.045832868420050632e-01,-2.354868927099298126e-01,0.000000000000000000e+00
-3.686237150984250643e-01,-2.502875473031102027e-01,0.000000000000000000e+00
-3.254722290061290435e-01,-2.798888564894709274e-01,0.000000000000000000e+00
-2.751288285651170562e-01,-2.502875473031102027e-01,0.000000000000000000e+00
-2.355732996471789908e-01,-2.108191350546291531e-01,0.000000000000000000e+00
-1.528662846369449324e-01,-2.108191350546291531e-01,0.000000000000000000e+00
-8.813905549850090115e-02,-1.861513773993285215e-01,0.000000000000000000e+00
-4.498756940620488032e-02,-1.170816559644867610e-01,0.000000000000000000e+00
-9.027997662624857172e-03,-1.170816559644867610e-01,0.000000000000000000e+00
4.850731712710316945e-02,-4.307838299858487291e-02,0.000000000000000000e+00
5.929518865017718160e-02,-7.761324371600575311e-02,0.000000000000000000e+00
9.165880321939919029e-02,-5.294548606070512142e-02,0.000000000000000000e+00
9.525476039375720128e-02,-4.307838299858487291e-02,0.000000000000000000e+00
7.367901734760917698e-02,-1.841062534328424469e-02,0.000000000000000000e+00
8.446688887068319607e-02,-1.841062534328424469e-02,0.000000000000000000e+00
4.850731712710316945e-02,-1.841062534328424469e-02,0.000000000000000000e+00
5.569923147581917061e-02,1.323580780956258628e-03,0.000000000000000000e+00
5.569923147581917061e-02,-1.841062534328424469e-02,0.000000000000000000e+00
6.289114582453517177e-02,0.000000000000000000e+00,0.000000000000000000e+00
4.131540277838716829e-02,0.000000000000000000e+00,0.000000000000000000e+00
5.929518865017718160e-02,0.000000000000000000e+00,0.000000000000000000e+00
4.131540277838716829e-02,3.092488996731701523e-02,0.000000000000000000e+00
6.289114582453517177e-02,3.585844149837714295e-02,0.000000000000000000e+00
5.569923147581917061e-02,4.572554456049739841e-02,0.000000000000000000e+00
8.087093169632518508e-02,-8.543522281163994439e-03,0.000000000000000000e+00
6.648710299889318276e-02,5.065909609155752613e-02,0.000000000000000000e+00
7.367901734760917698e-02,1.323580780956258628e-03,0.000000000000000000e+00
4.131540277838716829e-02,2.599133843625689097e-02,0.000000000000000000e+00
3.771944560402916424e-02,0.000000000000000000e+00,0.000000000000000000e+00
4.131540277838716829e-02,-3.609970750103867580e-03,0.000000000000000000e+00
1.973965973223915787e-02,1.323580780956258628e-03,0.000000000000000000e+00
1.254774538352315325e-02,1.612423537413663552e-02,0.000000000000000000e+00
0.000000000000000000e+00,1.323580780956258628e-03,0.000000000000000000e+00
8.951788209165152665e-03,-3.609970750103867580e-03,0.000000000000000000e+00
-1.621991201134086180e-02,1.323580780956258628e-03,0.000000000000000000e+00
-1.262395483698285949e-02,-3.609970750103867580e-03,0.000000000000000000e+00
-2.341182636005686643e-02,-3.609970750103867580e-03,0.000000000000000000e+00
-1.981586918569886238e-02,4.079199302943727068e-02,0.000000000000000000e+00
-2.700778353441486701e-02,0.000000000000000000e+00,0.000000000000000000e+00
-2.341182636005686643e-02,-8.543522281163994439e-03,0.000000000000000000e+00
-3.419969788313087511e-02,-8.543522281163994439e-03,0.000000000000000000e+00
-2.341182636005686643e-02,-3.609970750103867580e-03,0.000000000000000000e+00
-3.419969788313087511e-02,-3.609970750103867580e-03,0.000000000000000000e+00
-4.858352658056287743e-02,1.119068384307650953e-02,0.000000000000000000e+00
-3.419969788313087511e-02,0.000000000000000000e+00,0.000000000000000000e+00
-5.432040488266855725e-03,4.572554456049739841e-02,0.000000000000000000e+00
1.614370255788115729e-02,6.052619915367778158e-02,0.000000000000000000e+00
3.771944560402916424e-02,4.572554456049739841e-02,0.000000000000000000e+00
6.289114582453517177e-02,1.049281629332189242e-01,0.000000000000000000e+00
3.052753125531316308e-02,4.572554456049739841e-02,0.000000000000000000e+00
1.614370255788115729e-02,2.105778690519676324e-02,0.000000000000000000e+00
0.000000000000000000e+00,-2.334417687434437241e-02,0.000000000000000000e+00
-2.700778353441486701e-02,1.323580780956258628e-03,0.000000000000000000e+00
-4.139161223184688321e-02,-1.841062534328424469e-02,0.000000000000000000e+00
-5.217948375492088148e-02,-2.827772840540449667e-02,0.000000000000000000e+00
-8.454309832414290404e-02,-3.814483146752475212e-02,0.000000000000000000e+00
-6.656331245235289074e-02,-3.814483146752475212e-02,0.000000000000000000e+00
-7.735118397542689594e-02,1.119068384307650953e-02,0.000000000000000000e+00
-7.015926962671088785e-02,-1.347707381222412043e-02,0.000000000000000000e+00
-9.533096984721690925e-02,-1.347707381222412043e-02,0.000000000000000000e+00
-7.375522680106889883e-02,1.612423537413663552e-02,0.000000000000000000e+00
-9.533096984721690925e-02,-1.347707381222412043e-02,0.000000000000000000e+00
-1.133107557190069226e-01,1.612423537413663552e-02,0.000000000000000000e+00
-1.025228841959329035e-01,3.092488996731701523e-02,0.000000000000000000e+00
-8.813905549850090115e-02,1.323580780956258628e-03,0.000000000000000000e+00
-7.375522680106889883e-02,1.612423537413663552e-02,0.000000000000000000e+00
-7.375522680106889883e-02,1.612423537413663552e-02,0.000000000000000000e+00
-8.454309832414290404e-02,1.612423537413663552e-02,0.000000000000000000e+00
-5.937139810363688264e-02,9.999461140215877564e-02,1.927635024484003201e-01
0.000000000000000000e+00,0.000000000000000000e+00,1.927635024484003201e-01
0.000000000000000000e+00,0.000000000000000000e+00,1.927635024484003201e-01
0.000000000000000000e+00,0.000000000000000000e+00,1.927635024484003201e-01
0.000000000000000000e+00,0.000000000000000000e+00,1.927635024484003201e-01
0.000000000000000000e+00,0.000000000000000000e+00,1.927635024484003201e-01
0.000000000000000000e+00,0.000000000000000000e+00,1.927635024484003201e-01
0.000000000000000000e+00,0.000000000000000000e+00,1.927635024484003201e-01
0.000000000000000000e+00,0.000000000000000000e+00,1.927635024484003201e-01
0.000000000000000000e+00,0.000000000000000000e+00,1.927635024484003201e-01
0.000000000000000000e+00,0.000000000000000000e+00,1.927635024484003201e-01
0.000000000000000000e+00,0.000000000000000000e+00,1.927635024484003201e-01
0.000000000000000000e+00,0.000000000000000000e+00,1.927635024484003201e-01
0.000000000000000000e+00,0.000000000000000000e+00,1.927635024484003201e-01
0.000000000000000000e+00,0.000000000000000000e+00,1.927635024484003201e-01
0.000000000000000000e+00,0.000000000000000000e+00,1.927635024484003201e-01
0.000000000000000000e+00,0.000000000000000000e+00,1.927635024484003201e-01
0.000000000000000000e+00,0.000000000000000000e+00,1.927635024484003201e-01
0.000000000000000000e+00,0.000000000000000000e+00,1.927635024484003201e-01
0.000000000000000000e+00,0.000000000000000000e+00,1.927635024484003201e-01
0.000000000000000000e+00,0.000000000000000000e+00,1.927635024484003201e-01
0.000000000000000000e+00,0.000000000000000000e+00,1.927635024484003201e-01
0.000000000000000000e+00,0.000000000000000000e+00,1.927635024484003201e-01
0.000000000000000000e+00,0.000000000000000000e+00,1.927635024484003201e-01
0.000000000000000000e+00,0.000000000000000000e+00,1.927635024484003201e-01
0.000000000000000000e+00,0.000000000000000000e+00,1.927635024484003201e-01
0.000000000000000000e+00,0.000000000000000000e+00,1.927635024484003201e-01
0.000000000000000000e+00,0.000000000000000000e+00,1.927635024484003201e-01
0.000000000000000000e+00,0.000000000000000000e+00,1.927635024484003201e-01
0.000000000000000000e+00,0.000000000000000000e+00,1.927635024484003201e-01
0.000000000000000000e+00,0.000000000000000000e+00,1.927635024484003201e-01
0.000000000000000000e+00,0.000000000000000000e+00,1.927635024484003201e-01
0.000000000000000000e+00,0.000000000000000000e+00,1.927635024484003201e-01
0.000000000000000000e+00,0.000000000000000000e+00,1.927635024484003201e-01
0.000000000000000000e+00,0.000000000000000000e+00,1.927635024484003201e-01
0.000000000000000000e+00,0.000000000000000000e+00,1.927635024484003201e-01
0.000000000000000000e+00,0.000000000000000000e+00,1.927635024484003201e-01
0.000000000000000000e+00,0.000000000000000000e+00,1.927635024484003201e-01
0.000000000000000000e+00,0.000000000000000000e+00,1.927635024484003201e-01
0.000000000000000000e+00,0.000000000000000000e+00,1.927635024484003201e-01
0.000000000000000000e+00,0.000000000000000000e+00,1.927635024484003201e-01
0.000000000000000000e+00,0.000000000000000000e+00,1.927635024484003201e-01
0.000000000000000000e+00,0.000000000000000000e+00,1.927635024484003201e-01
0.000000000000000000e+00,0.000000000000000000e+00,1.927635024484003201e-01
0.000000000000000000e+00,0.000000000000000000e+00,1.927635024484003201e-01
0.000000000000000000e+00,0.000000000000000000e+00,1.927635024484003201e-01
0.000000000000000000e+00,0.000000000000000000e+00,1.927635024484003201e-01
0.000000000000000000e+00,0.000000000000000000e+00,1.927635024484003201e-01
0.000000000000000000e+00,0.000000000000000000e+00,1.927635024484003201e-01
