9.525476039375720128e-02,7.532685374685815782e-02,0.000000000000000000e+00
7.008306017325117987e-02,2.599133843625689097e-02,0.000000000000000000e+00
2.786485762860153037e-01,-1.269487590266070165e-01,0.000000000000000000e+00
5.069918568577483908e-01,-2.897559595515911690e-01,0.000000000000000000e+00
4.944060067474954079e-01,2.352456267072682711e-02,0.000000000000000000e+00
4.548504778295573425e-01,1.887985389612410747e-01,0.000000000000000000e+00
2.247092186706452777e-01,2.430676058029024311e-01,0.000000000000000000e+00
-5.432040488266855725e-03,3.861406002036461005e-01,0.000000000000000000e+00
-5.577544092927888553e-02,5.489478007286302530e-01,0.000000000000000000e+00
-1.262395483698285949e-02,6.870872435983137461e-01,0.000000000000000000e+00
-1.097147985446489116e-01,8.153595834058769976e-01,0.000000000000000000e+00
-9.533096984721690925e-02,6.426852798187726590e-01,0.000000000000000000e+00
-8.454309832414290404e-02,3.269379818309245955e-01,0.000000000000000000e+00
-1.600581989856609266e-01,1.119068384307650953e-02,0.000000000000000000e+00
-2.499571283446109793e-01,-1.347707381222412043e-02,0.000000000000000000e+00
-2.355732996471789908e-01,-2.334417687434437241e-02,0.000000000000000000e+00
-2.895126572625489891e-01,-4.307838299858487291e-02,0.000000000000000000e+00
-3.038964859599810331e-01,-3.814483146752475212e-02,0.000000000000000000e+00
-3.794115866214990973e-01,-5.294548606070512142e-02,0.000000000000000000e+00
-3.722196722727830753e-01,-3.321127993646462440e-02,0.000000000000000000e+00
-3.794115866214990973e-01,-6.281258912282537687e-02,0.000000000000000000e+00
-4.693105159804490945e-01,-7.267969218494563233e-02,0.000000000000000000e+00
-4.800983875035231274e-01,-8.254679524706588778e-02,0.000000000000000000e+00
-5.052700877240291488e-01,-1.072145529023665056e-01,0.000000000000000000e+00
-5.843811455599051685e-01,-1.269487590266070165e-01,0.000000000000000000e+00
-5.592094453393992026e-01,-1.762842743372082799e-01,0.000000000000000000e+00
-5.376337022932511367e-01,-1.960184804614487630e-01,0.000000000000000000e+00
-5.376337022932511367e-01,-1.960184804614487630e-01,0.000000000000000000e+00
-4.657145588060910835e-01,-2.157526865856893017e-01,0.000000000000000000e+00
-4.117752011907210852e-01,-2.404204442409899056e-01,0.000000000000000000e+00
-3.506439292266350649e-01,-2.404204442409899056e-01,0.000000000000000000e+00
-2.607449998676850123e-01,-2.256197896478095433e-01,0.000000000000000000e+00
-1.528662846369449324e-01,-2.157526865856893017e-01,0.000000000000000000e+00
-7.015926962671088785e-02,-1.861513773993285215e-01,0.000000000000000000e+00
1.759873860449148036e-03,-1.713507228061481591e-01,0.000000000000000000e+00
4.850731712710316945e-02,-1.269487590266070165e-01,0.000000000000000000e+00
8.806284604504119318e-02,-1.121481044334266264e-01,0.000000000000000000e+00
1.276183749629792308e-01,-7.267969218494563233e-02,0.000000000000000000e+00
1.491941180091272412e-01,-1.841062534328424469e-02,0.000000000000000000e+00
1.959415612757812730e-01,1.612423537413663552e-02,0.000000000000000000e+00
2.067294327988552782e-01,3.585844149837714295e-02,0.000000000000000000e+00
2.247092186706452777e-01,7.532685374685815782e-02,0.000000000000000000e+00
2.139213471475712447e-01,7.532685374685815782e-02,0.000000000000000000e+00
2.247092186706452777e-01,1.295959205885195420e-01,0.000000000000000000e+00
2.570728332398672933e-01,1.147952659953391658e-01,0.000000000000000000e+00
2.426890045424352493e-01,1.147952659953391658e-01,0.000000000000000000e+00
2.319011330193612441e-01,1.197288175263992865e-01,0.000000000000000000e+00
2.354970901937192551e-01,1.197288175263992865e-01,0.000000000000000000e+00
2.103253899732132892e-01,1.147952659953391658e-01,0.000000000000000000e+00
2.247092186706452777e-01,1.049281629332189242e-01,0.000000000000000000e+00
2.354970901937192551e-01,8.026040527791827861e-02,0.000000000000000000e+00
1.348102893116952250e-01,1.147952659953391658e-01,0.000000000000000000e+00
2.175173043219292557e-01,1.542636782438201737e-01,0.000000000000000000e+00
2.354970901937192551e-01,1.246623690574594212e-01,0.000000000000000000e+00
2.247092186706452777e-01,1.197288175263992865e-01,0.000000000000000000e+00
1.995375184501392840e-01,1.295959205885195420e-01,0.000000000000000000e+00
1.491941180091272412e-01,1.443965751816999321e-01,0.000000000000000000e+00
1.563860323578432354e-01,9.999461140215877564e-02,0.000000000000000000e+00
2.067294327988552782e-01,4.079199302943727068e-02,0.000000000000000000e+00
2.175173043219292557e-01,5.065909609155752613e-02,0.000000000000000000e+00
2.247092186706452777e-01,4.572554456049739841e-02,0.000000000000000000e+00
1.671739038809172406e-01,4.079199302943727068e-02,0.000000000000000000e+00
1.671739038809172406e-01,5.065909609155752613e-02,0.000000000000000000e+00
1.887496469270652510e-01,8.519395680897841328e-02,0.000000000000000000e+00
2.426890045424352493e-01,5.065909609155752613e-02,0.000000000000000000e+00
2.211132614962872667e-01,8.026040527791827861e-02,0.000000000000000000e+00
2.139213471475712447e-01,9.999461140215877564e-02,1.927635024484003201e-01
0.000000000000000000e+00,0.000000000000000000e+00,1.927635024484003201e-01
0.000000000000000000e+00,0.000000000000000000e+00,1.927635024484003201e-01
0.000000000000000000e+00,0.000000000000000000e+00,1.927635024484003201e-01
0.000000000000000000e+00,0.000000000000000000e+00,1.927635024484003201e-01
0.000000000000000000e+00,0.000000000000000000e+00,1.927635024484003201e-01
0.000000000000000000e+00,0.000000000000000000e+00,1.927635024484003201e-01
0.000000000000000000e+00,0.000000000000000000e+00,1.927635024484003201e-01
0.000000000000000000e+00,0.000000000000000000e+00,1.927635024484003201e-01
0.000000000000000000e+00,0.000000000000000000e+00,1.927635024484003201e-01
0.000000000000000000e+00,0.000000000000000000e+00,1.927635024484003201e-01
0.000000000000000000e+00,0.000000000000000000e+00,1.927635024484003201e-01
0.000000000000000000e+00,0.000000000000000000e+00,1.927635024484003201e-01
0.000000000000000000e+00,0.000000000000000000e+00,1.927635024484003201e-01
0.000000000000000000e+00,0.000000000000000000e+00,1.927635024484003201e-01
0.000000000000000000e+00,0.000000000000000000e+00,1.927635024484003201e-01
0.000000000000000000e+00,0.000000000000000000e+00,1.927635024484003201e-01
0.000000000000000000e+00,0.000000000000000000e+00,1.927635024484003201e-01
0.000000000000000000e+00,0.000000000000000000e+00,1.927635024484003201e-01
0.000000000000000000e+00,0.000000000000000000e+00,1.927635024484003201e-01
0.000000000000000000e+00,0.000000000000000000e+00,1.927635024484003201e-01
0.000000000000000000e+00,0.000000000000000000e+00,1.927635024484003201e-01
0.000000000000000000e+00,0.000000000000000000e+00,1.927635024484003201e-01
0.000000000000000000e+00,0.000000000000000000e+00,1.927635024484003201e-01
0.000000000000000000e+00,0.000000000000000000e+00,1.927635024484003201e-01
0.000000000000000000e+00,0.000000000000000000e+00,1.927635024484003201e-01
0.000000000000000000e+00,0.000000000000000000e+00,1.927635024484003201e-01
0.000000000000000000e+00,0.000000000000000000e+00,1.927635024484003201e-01
0.000000000000000000e+00,0.000000000000000000e+00,1.927635024484003201e-01
0.000000000000000000e+00,0.000000000000000000e+00,1.927635024484003201e-01
0.000000000000000000e+00,0.000000000000000000e+00,1.927635024484003201e-01
0.000000000000000000e+00,0.000000000000000000e+00,1.927635024484003201e-01
0.000000000000000000e+00,0.000000000000000000e+00,1.927635024484003201e-01
0.000000000000000000e+00,0.000000000000000000e+00,1.927635024484003201e-01
0.000000000000000000e+00,0.000000000000000000e+00,1.927635024484003201e-01
0.000000000000000000e+00,0.000000000000000000e+00,1.927635024484003201e-01
0.000000000000000000e+00,0.000000000000000000e+00,1.927635024484003201e-01
0.000000000000000000e+00,0.000000000000000000e+00,1.927635024484003201e-01
0.000000000000000000e+00,0.000000000000000000e+00,1.927635024484003201e-01
0.000000000000000000e+00,0.000000000000000000e+00,1.927635024484003201e-01
0.000000000000000000e+00,0.000000000000000000e+00,1.927635024484003201e-01
0.000000000000000000e+00,0.000000000000000000e+00,1.927635024484003201e-01
0.000000000000000000e+00,0.000000000000000000e+00,1.927635024484003201e-01
0.000000000000000000e+00,0.000000000000000000e+00,1.927635024484003201e-01
0.000000000000000000e+00,0.000000000000000000e+00,1.927635024484003201e-01
0.000000000000000000e+00,0.000000000000000000e+00,1.927635024484003201e-01
0.000000000000000000e+00,0.000000000000000000e+00,1.927635024484003201e-01
0.000000000000000000e+00,0.000000000000000000e+00,1.927635024484003201e-01
0.000000000000000000e+00,0.000000000000000000e+00,1.927635024484003201e-01
0.000000000000000000e+00,0.000000000000000000e+00,1.927635024484003201e-01
0.000000000000000000e+00,0.000000000000000000e+00,1.927635024484003201e-01
0.000000000000000000e+00,0.000000000000000000e+00,1.927635024484003201e-01
0.000000000000000000e+00,0.000000000000000000e+00,1.927635024484003201e-01
0.000000000000000000e+00,0.000000000000000000e+00,1.927635024484003201e-01
0.000000000000000000e+00,0.000000000000000000e+00,1.927635024484003201e-01
0.000000000000000000e+00,0.000000000000000000e+00,1.927635024484003201e-01
0.000000000000000000e+00,0.000000000000000000e+00,1.927635024484003201e-01
0.000000000000000000e+00,0.000000000000000000e+00,1.927635024484003201e-01
0.000000000000000000e+00,0.000000000000000000e+00,1.927635024484003201e-01
0.000000000000000000e+00,0.000000000000000000e+00,1.927635024484003201e-01
0.000000000000000000e+00,0.000000000000000000e+00,1.927635024484003201e-01
0.000000000000000000e+00,0.000000000000000000e+00,1.927635024484003201e-01
0.000000000000000000e+00,0.000000000000000000e+00,1.927635024484003201e-01
0.000000000000000000e+00,0.000000000000000000e+00,1.927635024484003201e-01
0.000000000000000000e+00,0.000000000000000000e+00,1.927635024484003201e-01
0.000000000000000000e+00,0.000000000000000000e+00,1.927635024484003201e-01
0.000000000000000000e+00,0.000000000000000000e+00,1.927635024484003201e-01
0.000000000000000000e+00,0.000000000000000000e+00,1.927635024484003201e-01
0.000000000000000000e+00,0.000000000000000000e+00,1.927635024484003201e-01
0.000000000000000000e+00,0.000000000000000000e+00,1.927635024484003201e-01
0.000000000000000000e+00,0.000000000000000000e+00,1.927635024484003201e-01
0.000000000000000000e+00,0.000000000000000000e+00,1.927635024484003201e-01
0.000000000000000000e+00,0.000000000000000000e+00,1.927635024484003201e-01
0.000000000000000000e+00,0.000000000000000000e+00,1.927635024484003201e-01
0.000000000000000000e+00,0.000000000000000000e+00,1.927635024484003201e-01
0.000000000000000000e+00,0.000000000000000000e+00,1.927635024484003201e-01
0.000000000000000000e+00,0.000000000000000000e+00,1.927635024484003201e-01
0.000000000000000000e+00,0.000000000000000000e+00,1.927635024484003201e-01
0.000000000000000000e+00,0.000000000000000000e+00,1.927635024484003201e-01
0.000000000000000000e+00,0.000000000000000000e+00,1.927635024484003201e-01
0.000000000000000000e+00,0.000000000000000000e+00,1.927635024484003201e-01
0.000000000000000000e+00,0.000000000000000000e+00,1.927635024484003201e-01
0.000000000000000000e+00,0.000000000000000000e+00,1.927635024484003201e-01
0.000000000000000000e+00,0.000000000000000000e+00,1.927635024484003201e-01
0.000000000000000000e+00,0.000000000000000000e+00,1.927635024484003201e-01
0.000000000000000000e+00,0.000000000000000000e+00,1.927635024484003201e-01
