4.850731712710316945e-02,-3.609970750103867580e-03,0.000000000000000000e+00
2.768505976988362982e-01,-3.193572687379518937e-01,0.000000000000000000e+00
4.800221780500634194e-01,-6.351045667258000682e-01,0.000000000000000000e+00
3.074162336808792806e-01,-3.218240445034820096e-01,0.000000000000000000e+00
3.325879339013853020e-01,-8.543522281163994439e-03,0.000000000000000000e+00
1.024466747424731955e-01,8.026040527791827861e-02,0.000000000000000000e+00
-1.276945844164389110e-01,3.368050848930448371e-01,0.000000000000000000e+00
7.008306017325117987e-02,4.848116308248485717e-01,0.000000000000000000e+00
1.312143321373372140e-01,6.525523828808927895e-01,0.000000000000000000e+00
2.693157408095516250e-02,8.745622017785984470e-01,0.000000000000000000e+00
1.132345462655472146e-01,8.350937895301174807e-01,0.000000000000000000e+00
1.168305034399052117e-01,5.193464915422695283e-01,0.000000000000000000e+00
-1.262395483698285949e-02,2.035991935544214648e-01,0.000000000000000000e+00
-1.169067128933649058e-01,1.323580780956258628e-03,0.000000000000000000e+00
-7.015926962671088785e-02,-4.801193452964499370e-02,0.000000000000000000e+00
-1.240986272420809000e-01,-2.827772840540449667e-02,0.000000000000000000e+00
-9.173501267285891214e-02,-4.801193452964499370e-02,0.000000000000000000e+00
-1.384824559395129162e-01,-5.294548606070512142e-02,0.000000000000000000e+00
-1.348864987651549052e-01,-5.294548606070512142e-02,0.000000000000000000e+00
-1.456743702882289104e-01,-6.774614065388549766e-02,0.000000000000000000e+00
-1.348864987651549052e-01,-6.774614065388549766e-02,0.000000000000000000e+00
-1.348864987651549052e-01,-7.267969218494563233e-02,0.000000000000000000e+00
-1.600581989856609266e-01,-6.281258912282537687e-02,0.000000000000000000e+00
-1.924218135548829423e-01,-9.241389830918614323e-02,0.000000000000000000e+00
-2.068056422523149585e-01,-7.267969218494563233e-02,0.000000000000000000e+00
-2.068056422523149585e-01,-9.241389830918614323e-02,0.000000000000000000e+00
-2.032096850779569475e-01,-1.220152074955468957e-01,0.000000000000000000e+00
-1.996137279035989365e-01,-1.072145529023665056e-01,0.000000000000000000e+00
-2.211894709497469746e-01,-1.417494136197874066e-01,0.000000000000000000e+00
-2.391692568215370018e-01,-1.614836197440279175e-01,0.000000000000000000e+00
-2.068056422523149585e-01,-1.614836197440279175e-01,0.000000000000000000e+00
-1.852298992061669480e-01,-1.910849289303886422e-01,0.000000000000000000e+00
-1.924218135548829423e-01,-2.157526865856893017e-01,0.000000000000000000e+00
-1.564622418113029434e-01,-2.256197896478095433e-01,0.000000000000000000e+00
-1.205026700677229168e-01,-2.206862381167494225e-01,0.000000000000000000e+00
-7.735118397542689594e-02,-2.650882018962905651e-01,0.000000000000000000e+00
-4.858352658056287743e-02,-2.256197896478095433e-01,0.000000000000000000e+00
4.850731712710316945e-02,-2.354868927099298126e-01,0.000000000000000000e+00
4.850731712710316945e-02,-2.058855835235690046e-01,0.000000000000000000e+00
9.525476039375720128e-02,-1.812178258682684007e-01,0.000000000000000000e+00
1.348102893116952250e-01,-1.614836197440279175e-01,0.000000000000000000e+00
1.384062464860532360e-01,-1.417494136197874066e-01,0.000000000000000000e+00
1.707698610552752516e-01,-1.121481044334266264e-01,0.000000000000000000e+00
2.103253899732132892e-01,-7.761324371600575311e-02,0.000000000000000000e+00
2.211132614962872667e-01,-7.267969218494563233e-02,0.000000000000000000e+00
1.743658182296332626e-01,-1.841062534328424469e-02,0.000000000000000000e+00
2.283051758450032886e-01,-3.814483146752475212e-02,0.000000000000000000e+00
1.887496469270652510e-01,-1.347707381222412043e-02,0.000000000000000000e+00
1.959415612757812730e-01,-3.609970750103867580e-03,0.000000000000000000e+00
1.635779467065592574e-01,1.323580780956258628e-03,0.000000000000000000e+00
1.779617754039912458e-01,-3.609970750103867580e-03,0.000000000000000000e+00
1.599819895322012464e-01,0.000000000000000000e+00,0.000000000000000000e+00
1.743658182296332626e-01,-3.609970750103867580e-03,0.000000000000000000e+00
1.671739038809172406e-01,1.612423537413663552e-02,0.000000000000000000e+00
1.671739038809172406e-01,2.105778690519676324e-02,0.000000000000000000e+00
1.743658182296332626e-01,0.000000000000000000e+00,0.000000000000000000e+00
1.707698610552752516e-01,2.599133843625689097e-02,0.000000000000000000e+00
1.707698610552752516e-01,1.323580780956258628e-03,0.000000000000000000e+00
1.743658182296332626e-01,1.612423537413663552e-02,0.000000000000000000e+00
1.815577325783492568e-01,-3.609970750103867580e-03,0.000000000000000000e+00
1.671739038809172406e-01,1.612423537413663552e-02,0.000000000000000000e+00
1.743658182296332626e-01,-8.543522281163994439e-03,0.000000000000000000e+00
1.671739038809172406e-01,-8.543522281163994439e-03,0.000000000000000000e+00
1.707698610552752516e-01,-8.543522281163994439e-03,0.000000000000000000e+00
1.779617754039912458e-01,-8.543522281163994439e-03,0.000000000000000000e+00
1.671739038809172406e-01,-1.347707381222412043e-02,0.000000000000000000e+00
1.420022036604112470e-01,1.323580780956258628e-03,0.000000000000000000e+00
1.455981608347692302e-01,-2.334417687434437241e-02,0.000000000000000000e+00
1.599819895322012464e-01,-2.334417687434437241e-02,0.000000000000000000e+00
1.348102893116952250e-01,1.323580780956258628e-03,0.000000000000000000e+00
1.599819895322012464e-01,3.092488996731701523e-02,0.000000000000000000e+00
2.031334756244972672e-01,1.612423537413663552e-02,0.000000000000000000e+00
2.031334756244972672e-01,7.039330221579802316e-02,0.000000000000000000e+00
2.139213471475712447e-01,6.545975068473790237e-02,0.000000000000000000e+00
2.175173043219292557e-01,4.572554456049739841e-02,0.000000000000000000e+00
1.887496469270652510e-01,1.119068384307650953e-02,0.000000000000000000e+00
1.455981608347692302e-01,-8.543522281163994439e-03,0.000000000000000000e+00
1.779617754039912458e-01,-1.347707381222412043e-02,0.000000000000000000e+00
1.168305034399052117e-01,-2.334417687434437241e-02,0.000000000000000000e+00
1.132345462655472146e-01,-8.543522281163994439e-03,0.000000000000000000e+00
1.132345462655472146e-01,-4.307838299858487291e-02,0.000000000000000000e+00
1.096385890911892036e-01,-3.814483146752475212e-02,0.000000000000000000e+00
7.727497452196718797e-02,-1.347707381222412043e-02,0.000000000000000000e+00
9.885071756811519839e-02,-1.841062534328424469e-02,0.000000000000000000e+00
1.312143321373372140e-01,1.323580780956258628e-03,0.000000000000000000e+00
7.367901734760917698e-02,1.323580780956258628e-03,0.000000000000000000e+00
1.096385890911892036e-01,1.323580780956258628e-03,0.000000000000000000e+00
1.060426319168311926e-01,1.323580780956258628e-03,0.000000000000000000e+00
8.087093169632518508e-02,-3.609970750103867580e-03,0.000000000000000000e+00
9.525476039375720128e-02,-1.347707381222412043e-02,0.000000000000000000e+00
8.446688887068319607e-02,1.323580780956258628e-03,0.000000000000000000e+00
1.132345462655472146e-01,1.119068384307650953e-02,0.000000000000000000e+00
7.008306017325117987e-02,-1.347707381222412043e-02,0.000000000000000000e+00
9.165880321939919029e-02,7.532685374685815782e-02,1.927635024484003201e-01
0.000000000000000000e+00,0.000000000000000000e+00,1.927635024484003201e-01
0.000000000000000000e+00,0.000000000000000000e+00,1.927635024484003201e-01
0.000000000000000000e+00,0.000000000000000000e+00,1.927635024484003201e-01
0.000000000000000000e+00,0.000000000000000000e+00,1.927635024484003201e-01
0.000000000000000000e+00,0.000000000000000000e+00,1.927635024484003201e-01
0.000000000000000000e+00,0.000000000000000000e+00,1.927635024484003201e-01
0.000000000000000000e+00,0.000000000000000000e+00,1.927635024484003201e-01
0.000000000000000000e+00,0.000000000000000000e+00,1.927635024484003201e-01
0.000000000000000000e+00,0.000000000000000000e+00,1.927635024484003201e-01
0.000000000000000000e+00,0.000000000000000000e+00,1.927635024484003201e-01
0.000000000000000000e+00,0.000000000000000000e+00,1.927635024484003201e-01
0.000000000000000000e+00,0.000000000000000000e+00,1.927635024484003201e-01
0.000000000000000000e+00,0.000000000000000000e+00,1.927635024484003201e-01
0.000000000000000000e+00,0.000000000000000000e+00,1.927635024484003201e-01
0.000000000000000000e+00,0.000000000000000000e+00,1.927635024484003201e-01
0.000000000000000000e+00,0.000000000000000000e+00,1.927635024484003201e-01
0.000000000000000000e+00,0.000000000000000000e+00,1.927635024484003201e-01
0.000000000000000000e+00,0.000000000000000000e+00,1.927635024484003201e-01
0.000000000000000000e+00,0.000000000000000000e+00,1.927635024484003201e-01
0.000000000000000000e+00,0.000000000000000000e+00,1.927635024484003201e-01
0.000000000000000000e+00,0.000000000000000000e+00,1.927635024484003201e-01
0.000000000000000000e+00,0.000000000000000000e+00,1.927635024484003201e-01
0.000000000000000000e+00,0.000000000000000000e+00,1.927635024484003201e-01
0.000000000000000000e+00,0.000000000000000000e+00,1.927635024484003201e-01
0.000000000000000000e+00,0.000000000000000000e+00,1.927635024484003201e-01
0.000000000000000000e+00,0.000000000000000000e+00,1.927635024484003201e-01
0.000000000000000000e+00,0.000000000000000000e+00,1.927635024484003201e-01
0.000000000000000000e+00,0.000000000000000000e+00,1.927635024484003201e-01
0.000000000000000000e+00,0.000000000000000000e+00,1.927635024484003201e-01
0.000000000000000000e+00,0.000000000000000000e+00,1.927635024484003201e-01
0.000000000000000000e+00,0.000000000000000000e+00,1.927635024484003201e-01
0.000000000000000000e+00,0.000000000000000000e+00,1.927635024484003201e-01
0.000000000000000000e+00,0.000000000000000000e+00,1.927635024484003201e-01
0.000000000000000000e+00,0.000000000000000000e+00,1.927635024484003201e-01
0.000000000000000000e+00,0.000000000000000000e+00,1.927635024484003201e-01
0.000000000000000000e+00,0.000000000000000000e+00,1.927635024484003201e-01
0.000000000000000000e+00,0.000000000000000000e+00,1.927635024484003201e-01
0.000000000000000000e+00,0.000000000000000000e+00,1.927635024484003201e-01
0.000000000000000000e+00,0.000000000000000000e+00,1.927635024484003201e-01
0.000000000000000000e+00,0.000000000000000000e+00,1.927635024484003201e-01
0.000000000000000000e+00,0.000000000000000000e+00,1.927635024484003201e-01
0.000000000000000000e+00,0.000000000000000000e+00,1.927635024484003201e-01
0.000000000000000000e+00,0.000000000000000000e+00,1.927635024484003201e-01
0.000000000000000000e+00,0.000000000000000000e+00,1.927635024484003201e-01
0.000000000000000000e+00,0.000000000000000000e+00,1.927635024484003201e-01
0.000000000000000000e+00,0.000000000000000000e+00,1.927635024484003201e-01
0.000000000000000000e+00,0.000000000000000000e+00,1.927635024484003201e-01
0.000000000000000000e+00,0.000000000000000000e+00,1.927635024484003201e-01
0.000000000000000000e+00,0.000000000000000000e+00,1.927635024484003201e-01
0.000000000000000000e+00,0.000000000000000000e+00,1.927635024484003201e-01
0.000000000000000000e+00,0.000000000000000000e+00,1.927635024484003201e-01
0.000000000000000000e+00,0.000000000000000000e+00,1.927635024484003201e-01
0.000000000000000000e+00,0.000000000000000000e+00,1.927635024484003201e-01
0.000000000000000000e+00,0.000000000000000000e+00,1.927635024484003201e-01
0.000000000000000000e+00,0.000000000000000000e+00,1.927635024484003201e-01
0.000000000000000000e+00,0.000000000000000000e+00,1.927635024484003201e-01
0.000000000000000000e+00,0.000000000000000000e+00,1.927635024484003201e-01
0.000000000000000000e+00,0.000000000000000000e+00,1.927635024484003201e-01
