1.614370255788115729e-02,2.105778690519676324e-02,0.000000000000000000e+00
1.671739038809172406e-01,-1.368158620887272581e-01,0.000000000000000000e+00
3.649515484706073454e-01,-4.525631600765753215e-01,0.000000000000000000e+00
5.267696213167174513e-01,-5.068322269182367057e-01,0.000000000000000000e+00
2.966283621578053031e-01,-1.935517046959187304e-01,0.000000000000000000e+00
8.087093169632518508e-02,1.119068384307650953e-02,0.000000000000000000e+00
-1.492703274625869214e-01,2.529347088650226727e-01,0.000000000000000000e+00
-5.432040488266855725e-03,4.058748063278866391e-01,0.000000000000000000e+00
1.132345462655472146e-01,5.785491099149910887e-01,0.000000000000000000e+00
8.446688887068319607e-02,8.202931349369371183e-01,0.000000000000000000e+00
1.168305034399052117e-01,8.498944441232979541e-01,0.000000000000000000e+00
6.648710299889318276e-02,5.341471461354498906e-01,0.000000000000000000e+00
4.850731712710316945e-02,2.183998481476017994e-01,0.000000000000000000e+00
-1.276945844164389110e-01,1.323580780956258628e-03,0.000000000000000000e+00
-7.375522680106889883e-02,-5.787903759176525609e-02,0.000000000000000000e+00
-6.296735527799489363e-02,-6.774614065388549766e-02,0.000000000000000000e+00
-1.384824559395129162e-01,-7.267969218494563233e-02,0.000000000000000000e+00
-1.061188413702909145e-01,-6.774614065388549766e-02,0.000000000000000000e+00
-1.528662846369449324e-01,-4.801193452964499370e-02,0.000000000000000000e+00
-5.937139810363688264e-02,-5.294548606070512142e-02,0.000000000000000000e+00
-1.276945844164389110e-01,-6.774614065388549766e-02,0.000000000000000000e+00
-1.169067128933649058e-01,-7.761324371600575311e-02,0.000000000000000000e+00
-1.816339420318089370e-01,-1.121481044334266264e-01,0.000000000000000000e+00
-1.816339420318089370e-01,-6.774614065388549766e-02,0.000000000000000000e+00
-1.636541561600189376e-01,-6.281258912282537687e-02,0.000000000000000000e+00
-1.600581989856609266e-01,-8.254679524706588778e-02,0.000000000000000000e+00
-1.744420276830929428e-01,-1.318823105576671373e-01,0.000000000000000000e+00
-2.139975566010309804e-01,-1.269487590266070165e-01,0.000000000000000000e+00
-2.355732996471789908e-01,-1.220152074955468957e-01,0.000000000000000000e+00
-2.139975566010309804e-01,-1.466829651508475274e-01,0.000000000000000000e+00
-1.708460705087349318e-01,-1.614836197440279175e-01,0.000000000000000000e+00
-2.247854281241049301e-01,-2.058855835235690046e-01,0.000000000000000000e+00
-2.355732996471789908e-01,-2.256197896478095433e-01,0.000000000000000000e+00
-2.247854281241049301e-01,-2.206862381167494225e-01,0.000000000000000000e+00
-1.528662846369449324e-01,-2.502875473031102027e-01,0.000000000000000000e+00
-1.672501133343769208e-01,-2.453539957720500542e-01,0.000000000000000000e+00
-1.205026700677229168e-01,-2.650882018962905651e-01,0.000000000000000000e+00
-8.094714114978489305e-02,-2.700217534273506859e-01,0.000000000000000000e+00
-1.836083313908854061e-03,-2.502875473031102027e-01,0.000000000000000000e+00
1.973965973223915787e-02,-2.256197896478095433e-01,0.000000000000000000e+00
7.727497452196718797e-02,-2.453539957720500542e-01,0.000000000000000000e+00
1.024466747424731955e-01,-1.713507228061481591e-01,0.000000000000000000e+00
1.671739038809172406e-01,-1.516165166819076482e-01,0.000000000000000000e+00
2.247092186706452777e-01,-1.269487590266070165e-01,0.000000000000000000e+00
1.635779467065592574e-01,-9.734744984024626402e-02,0.000000000000000000e+00
2.103253899732132892e-01,-7.267969218494563233e-02,0.000000000000000000e+00
2.139213471475712447e-01,-4.307838299858487291e-02,0.000000000000000000e+00
2.211132614962872667e-01,-2.827772840540449667e-02,0.000000000000000000e+00
2.067294327988552782e-01,-2.827772840540449667e-02,0.000000000000000000e+00
2.175173043219292557e-01,-2.827772840540449667e-02,0.000000000000000000e+00
1.923456041014232620e-01,1.612423537413663552e-02,0.000000000000000000e+00
1.887496469270652510e-01,-8.543522281163994439e-03,0.000000000000000000e+00
1.959415612757812730e-01,-3.609970750103867580e-03,0.000000000000000000e+00
1.779617754039912458e-01,-1.347707381222412043e-02,0.000000000000000000e+00
1.563860323578432354e-01,-2.827772840540449667e-02,0.000000000000000000e+00
1.527900751834852244e-01,-2.334417687434437241e-02,0.000000000000000000e+00
2.139213471475712447e-01,2.105778690519676324e-02,0.000000000000000000e+00
1.168305034399052117e-01,1.323580780956258628e-03,0.000000000000000000e+00
1.779617754039912458e-01,1.323580780956258628e-03,0.000000000000000000e+00
1.312143321373372140e-01,-1.347707381222412043e-02,0.000000000000000000e+00
9.885071756811519839e-02,-3.321127993646462440e-02,0.000000000000000000e+00
1.491941180091272412e-01,1.323580780956258628e-03,0.000000000000000000e+00
2.139213471475712447e-01,2.599133843625689097e-02,0.000000000000000000e+00
1.168305034399052117e-01,-1.347707381222412043e-02,0.000000000000000000e+00
9.885071756811519839e-02,-3.609970750103867580e-03,0.000000000000000000e+00
1.384062464860532360e-01,0.000000000000000000e+00,0.000000000000000000e+00
1.204264606142632227e-01,-1.347707381222412043e-02,0.000000000000000000e+00
8.806284604504119318e-02,0.000000000000000000e+00,0.000000000000000000e+00
1.348102893116952250e-01,-1.841062534328424469e-02,0.000000000000000000e+00
1.132345462655472146e-01,1.612423537413663552e-02,0.000000000000000000e+00
8.806284604504119318e-02,1.323580780956258628e-03,0.000000000000000000e+00
1.348102893116952250e-01,0.000000000000000000e+00,0.000000000000000000e+00
4.850731712710316945e-02,1.323580780956258628e-03,0.000000000000000000e+00
1.132345462655472146e-01,1.612423537413663552e-02,0.000000000000000000e+00
7.367901734760917698e-02,-8.543522281163994439e-03,0.000000000000000000e+00
7.727497452196718797e-02,3.092488996731701523e-02,0.000000000000000000e+00
9.885071756811519839e-02,-3.609970750103867580e-03,0.000000000000000000e+00
1.420022036604112470e-01,3.092488996731701523e-02,0.000000000000000000e+00
1.312143321373372140e-01,9.012750834003853406e-02,0.000000000000000000e+00
1.671739038809172406e-01,7.039330221579802316e-02,0.000000000000000000e+00
1.096385890911892036e-01,2.599133843625689097e-02,0.000000000000000000e+00
1.743658182296332626e-01,3.585844149837714295e-02,0.000000000000000000e+00
3.771944560402916424e-02,-1.347707381222412043e-02,0.000000000000000000e+00
8.806284604504119318e-02,-3.814483146752475212e-02,0.000000000000000000e+00
8.806284604504119318e-02,-3.609970750103867580e-03,0.000000000000000000e+00
5.210327430146116656e-02,-3.814483146752475212e-02,0.000000000000000000e+00
6.648710299889318276e-02,-1.841062534328424469e-02,0.000000000000000000e+00
1.973965973223915787e-02,-6.281258912282537687e-02,0.000000000000000000e+00
6.289114582453517177e-02,-3.321127993646462440e-02,0.000000000000000000e+00
2.333561690659716192e-02,-3.814483146752475212e-02,0.000000000000000000e+00
4.491135995274516540e-02,-1.347707381222412043e-02,0.000000000000000000e+00
6.648710299889318276e-02,-1.347707381222412043e-02,0.000000000000000000e+00
7.367901734760917698e-02,1.612423537413663552e-02,0.000000000000000000e+00
3.771944560402916424e-02,1.323580780956258628e-03,0.000000000000000000e+00
6.648710299889318276e-02,-3.609970750103867580e-03,0.000000000000000000e+00
4.131540277838716829e-02,1.119068384307650953e-02,0.000000000000000000e+00
5.929518865017718160e-02,-1.841062534328424469e-02,0.000000000000000000e+00
7.008306017325117987e-02,-1.841062534328424469e-02,0.000000000000000000e+00
4.491135995274516540e-02,-3.609970750103867580e-03,0.000000000000000000e+00
7.727497452196718797e-02,9.506105987109865485e-02,1.927635024484003201e-01
0.000000000000000000e+00,0.000000000000000000e+00,1.927635024484003201e-01
0.000000000000000000e+00,0.000000000000000000e+00,1.927635024484003201e-01
0.000000000000000000e+00,0.000000000000000000e+00,1.927635024484003201e-01
0.000000000000000000e+00,0.000000000000000000e+00,1.927635024484003201e-01
0.000000000000000000e+00,0.000000000000000000e+00,1.927635024484003201e-01
0.000000000000000000e+00,0.000000000000000000e+00,1.927635024484003201e-01
0.000000000000000000e+00,0.000000000000000000e+00,1.927635024484003201e-01
0.000000000000000000e+00,0.000000000000000000e+00,1.927635024484003201e-01
0.000000000000000000e+00,0.000000000000000000e+00,1.927635024484003201e-01
0.000000000000000000e+00,0.000000000000000000e+00,1.927635024484003201e-01
0.000000000000000000e+00,0.000000000000000000e+00,1.927635024484003201e-01
0.000000000000000000e+00,0.000000000000000000e+00,1.927635024484003201e-01
0.000000000000000000e+00,0.000000000000000000e+00,1.927635024484003201e-01
0.000000000000000000e+00,0.000000000000000000e+00,1.927635024484003201e-01
0.000000000000000000e+00,0.000000000000000000e+00,1.927635024484003201e-01
0.000000000000000000e+00,0.000000000000000000e+00,1.927635024484003201e-01
0.000000000000000000e+00,0.000000000000000000e+00,1.927635024484003201e-01
0.000000000000000000e+00,0.000000000000000000e+00,1.927635024484003201e-01
0.000000000000000000e+00,0.000000000000000000e+00,1.927635024484003201e-01
0.000000000000000000e+00,0.000000000000000000e+00,1.927635024484003201e-01
0.000000000000000000e+00,0.000000000000000000e+00,1.927635024484003201e-01
0.000000000000000000e+00,0.000000000000000000e+00,1.927635024484003201e-01
0.000000000000000000e+00,0.000000000000000000e+00,1.927635024484003201e-01
0.000000000000000000e+00,0.000000000000000000e+00,1.927635024484003201e-01
0.000000000000000000e+00,0.000000000000000000e+00,1.927635024484003201e-01
0.000000000000000000e+00,0.000000000000000000e+00,1.927635024484003201e-01
0.000000000000000000e+00,0.000000000000000000e+00,1.927635024484003201e-01
0.000000000000000000e+00,0.000000000000000000e+00,1.927635024484003201e-01
0.000000000000000000e+00,0.000000000000000000e+00,1.927635024484003201e-01
0.000000000000000000e+00,0.000000000000000000e+00,1.927635024484003201e-01
0.000000000000000000e+00,0.000000000000000000e+00,1.927635024484003201e-01
0.000000000000000000e+00,0.000000000000000000e+00,1.927635024484003201e-01
0.000000000000000000e+00,0.000000000000000000e+00,1.927635024484003201e-01
0.000000000000000000e+00,0.000000000000000000e+00,1.927635024484003201e-01
0.000000000000000000e+00,0.000000000000000000e+00,1.927635024484003201e-01
0.000000000000000000e+00,0.000000000000000000e+00,1.927635024484003201e-01
0.000000000000000000e+00,0.000000000000000000e+00,1.927635024484003201e-01
0.000000000000000000e+00,0.000000000000000000e+00,1.927635024484003201e-01
0.000000000000000000e+00,0.000000000000000000e+00,1.927635024484003201e-01
0.000000000000000000e+00,0.000000000000000000e+00,1.927635024484003201e-01
0.000000000000000000e+00,0.000000000000000000e+00,1.927635024484003201e-01
0.000000000000000000e+00,0.000000000000000000e+00,1.927635024484003201e-01
0.000000000000000000e+00,0.000000000000000000e+00,1.927635024484003201e-01
0.000000000000000000e+00,0.000000000000000000e+00,1.927635024484003201e-01
0.000000000000000000e+00,0.000000000000000000e+00,1.927635024484003201e-01
0.000000000000000000e+00,0.000000000000000000e+00,1.927635024484003201e-01
0.000000000000000000e+00,0.000000000000000000e+00,1.927635024484003201e-01
0.000000000000000000e+00,0.000000000000000000e+00,1.927635024484003201e-01
0.000000000000000000e+00,0.000000000000000000e+00,1.927635024484003201e-01
0.000000000000000000e+00,0.000000000000000000e+00,1.927635024484003201e-01
0.000000000000000000e+00,0.000000000000000000e+00,1.927635024484003201e-01
0.000000000000000000e+00,0.000000000000000000e+00,1.927635024484003201e-01
