4.491135995274516540e-02,1.345294721195796628e-01,0.000000000000000000e+00
1.887496469270652510e-01,4.079199302943727068e-02,0.000000000000000000e+00
3.937192058654713223e-01,-2.453539957720500542e-01,0.000000000000000000e+00
6.130725935013094929e-01,-4.821644692629361018e-01,0.000000000000000000e+00
3.829313343423973448e-01,-1.688839470406180709e-01,0.000000000000000000e+00
3.685475056449653564e-01,1.443965751816999321e-01,0.000000000000000000e+00
1.384062464860532360e-01,3.022702241756239916e-01,0.000000000000000000e+00
-7.375522680106889883e-02,4.700109762316682649e-01,0.000000000000000000e+00
1.759873860449148036e-03,6.821536920672536253e-01,0.000000000000000000e+00
-9.027997662624857172e-03,8.844293048407187996e-01,0.000000000000000000e+00
-4.139161223184688321e-02,9.534990262755606016e-01,0.000000000000000000e+00
-7.015926962671088785e-02,6.377517282877124272e-01,0.000000000000000000e+00
-1.276945844164389110e-01,3.220044302998644747e-01,0.000000000000000000e+00
-2.283813852984629411e-01,1.197288175263992865e-01,0.000000000000000000e+00
-2.283813852984629411e-01,1.197288175263992865e-01,0.000000000000000000e+00
-2.104015994266729694e-01,6.052619915367778158e-02,0.000000000000000000e+00
-2.643409570420430232e-01,-2.827772840540449667e-02,0.000000000000000000e+00
-2.895126572625489891e-01,-3.321127993646462440e-02,0.000000000000000000e+00
-3.110884003086970551e-01,-1.841062534328424469e-02,0.000000000000000000e+00
-3.254722290061290435e-01,-6.281258912282537687e-02,0.000000000000000000e+00
-3.362601005292030765e-01,-2.827772840540449667e-02,0.000000000000000000e+00
-3.506439292266350649e-01,-5.294548606070512142e-02,0.000000000000000000e+00
-3.470479720522770539e-01,-5.787903759176525609e-02,0.000000000000000000e+00
-3.542398864009930759e-01,-5.294548606070512142e-02,0.000000000000000000e+00
-4.225630727137951181e-01,-6.774614065388549766e-02,0.000000000000000000e+00
-4.081792440163630742e-01,-8.748034677812600857e-02,0.000000000000000000e+00
-4.117752011907210852e-01,-8.748034677812600857e-02,0.000000000000000000e+00
-4.621186016317330725e-01,-1.121481044334266264e-01,0.000000000000000000e+00
-4.693105159804490945e-01,-1.417494136197874066e-01,0.000000000000000000e+00
-4.549266872830171060e-01,-1.220152074955468957e-01,0.000000000000000000e+00
-4.513307301086590950e-01,-1.762842743372082799e-01,0.000000000000000000e+00
-4.261590298881531291e-01,-2.009520319925089116e-01,0.000000000000000000e+00
-4.153711583650790962e-01,-2.256197896478095433e-01,0.000000000000000000e+00
-3.254722290061290435e-01,-2.256197896478095433e-01,0.000000000000000000e+00
-2.247854281241049301e-01,-2.354868927099298126e-01,0.000000000000000000e+00
-1.672501133343769208e-01,-2.354868927099298126e-01,0.000000000000000000e+00
-1.133107557190069226e-01,-2.009520319925089116e-01,0.000000000000000000e+00
-3.419969788313087511e-02,-2.009520319925089116e-01,0.000000000000000000e+00
4.131540277838716829e-02,-1.269487590266070165e-01,0.000000000000000000e+00
9.525476039375720128e-02,-1.220152074955468957e-01,0.000000000000000000e+00
6.648710299889318276e-02,-8.254679524706588778e-02,0.000000000000000000e+00
1.168305034399052117e-01,-4.307838299858487291e-02,0.000000000000000000e+00
1.096385890911892036e-01,-3.814483146752475212e-02,0.000000000000000000e+00
1.168305034399052117e-01,0.000000000000000000e+00,0.000000000000000000e+00
1.096385890911892036e-01,2.599133843625689097e-02,0.000000000000000000e+00
8.806284604504119318e-02,2.105778690519676324e-02,0.000000000000000000e+00
8.446688887068319607e-02,2.105778690519676324e-02,0.000000000000000000e+00
3.052753125531316308e-02,3.585844149837714295e-02,0.000000000000000000e+00
6.648710299889318276e-02,5.559264762261764692e-02,0.000000000000000000e+00
6.289114582453517177e-02,4.572554456049739841e-02,0.000000000000000000e+00
7.008306017325117987e-02,4.079199302943727068e-02,0.000000000000000000e+00
1.254774538352315325e-02,2.599133843625689097e-02,0.000000000000000000e+00
4.491135995274516540e-02,5.559264762261764692e-02,0.000000000000000000e+00
3.771944560402916424e-02,7.039330221579802316e-02,0.000000000000000000e+00
5.929518865017718160e-02,3.585844149837714295e-02,0.000000000000000000e+00
-5.432040488266855725e-03,4.572554456049739841e-02,0.000000000000000000e+00
1.759873860449148036e-03,6.545975068473790237e-02,0.000000000000000000e+00
1.254774538352315325e-02,3.092488996731701523e-02,0.000000000000000000e+00
3.052753125531316308e-02,5.065909609155752613e-02,0.000000000000000000e+00
-9.027997662624857172e-03,4.572554456049739841e-02,0.000000000000000000e+00
2.333561690659716192e-02,4.079199302943727068e-02,0.000000000000000000e+00
-9.027997662624857172e-03,6.545975068473790237e-02,0.000000000000000000e+00
-2.341182636005686643e-02,6.545975068473790237e-02,0.000000000000000000e+00
-3.419969788313087511e-02,3.092488996731701523e-02,0.000000000000000000e+00
-2.700778353441486701e-02,6.545975068473790237e-02,0.000000000000000000e+00
1.759873860449148036e-03,5.065909609155752613e-02,0.000000000000000000e+00
1.759873860449148036e-03,3.585844149837714295e-02,0.000000000000000000e+00
-3.779565505748887222e-02,5.065909609155752613e-02,0.000000000000000000e+00
-2.700778353441486701e-02,7.532685374685815782e-02,0.000000000000000000e+00
7.008306017325117987e-02,1.098617144642790450e-01,0.000000000000000000e+00
5.210327430146116656e-02,1.295959205885195420e-01,0.000000000000000000e+00
7.367901734760917698e-02,1.295959205885195420e-01,0.000000000000000000e+00
1.614370255788115729e-02,8.026040527791827861e-02,0.000000000000000000e+00
-9.027997662624857172e-03,4.572554456049739841e-02,0.000000000000000000e+00
2.693157408095516250e-02,4.572554456049739841e-02,0.000000000000000000e+00
-3.779565505748887222e-02,1.323580780956258628e-03,0.000000000000000000e+00
-5.217948375492088148e-02,1.612423537413663552e-02,0.000000000000000000e+00
-6.296735527799489363e-02,1.119068384307650953e-02,0.000000000000000000e+00
-6.656331245235289074e-02,-2.827772840540449667e-02,0.000000000000000000e+00
-7.735118397542689594e-02,3.092488996731701523e-02,0.000000000000000000e+00
-7.375522680106889883e-02,2.105778690519676324e-02,0.000000000000000000e+00
-1.061188413702909145e-01,0.000000000000000000e+00,0.000000000000000000e+00
-4.139161223184688321e-02,1.119068384307650953e-02,0.000000000000000000e+00
-1.276945844164389110e-01,1.612423537413663552e-02,0.000000000000000000e+00
-8.454309832414290404e-02,1.323580780956258628e-03,0.000000000000000000e+00
-8.813905549850090115e-02,1.119068384307650953e-02,0.000000000000000000e+00
-9.173501267285891214e-02,1.119068384307650953e-02,0.000000000000000000e+00
-7.735118397542689594e-02,-3.609970750103867580e-03,0.000000000000000000e+00
-1.097147985446489116e-01,1.612423537413663552e-02,0.000000000000000000e+00
-6.296735527799489363e-02,-8.543522281163994439e-03,0.000000000000000000e+00
-1.240986272420809000e-01,1.612423537413663552e-02,1.927635024484003201e-01
0.000000000000000000e+00,0.000000000000000000e+00,1.927635024484003201e-01
0.000000000000000000e+00,0.000000000000000000e+00,1.927635024484003201e-01
0.000000000000000000e+00,0.000000000000000000e+00,1.927635024484003201e-01
0.000000000000000000e+00,0.000000000000000000e+00,1.927635024484003201e-01
0.000000000000000000e+00,0.000000000000000000e+00,1.927635024484003201e-01
0.000000000000000000e+00,0.000000000000000000e+00,1.927635024484003201e-01
0.000000000000000000e+00,0.000000000000000000e+00,1.927635024484003201e-01
0.000000000000000000e+00,0.000000000000000000e+00,1.927635024484003201e-01
0.000000000000000000e+00,0.000000000000000000e+00,1.927635024484003201e-01
0.000000000000000000e+00,0.000000000000000000e+00,1.927635024484003201e-01
0.000000000000000000e+00,0.000000000000000000e+00,1.927635024484003201e-01
0.000000000000000000e+00,0.000000000000000000e+00,1.927635024484003201e-01
0.000000000000000000e+00,0.000000000000000000e+00,1.927635024484003201e-01
0.000000000000000000e+00,0.000000000000000000e+00,1.927635024484003201e-01
0.000000000000000000e+00,0.000000000000000000e+00,1.927635024484003201e-01
0.000000000000000000e+00,0.000000000000000000e+00,1.927635024484003201e-01
0.000000000000000000e+00,0.000000000000000000e+00,1.927635024484003201e-01
0.000000000000000000e+00,0.000000000000000000e+00,1.927635024484003201e-01
0.000000000000000000e+00,0.000000000000000000e+00,1.927635024484003201e-01
0.000000000000000000e+00,0.000000000000000000e+00,1.927635024484003201e-01
0.000000000000000000e+00,0.000000000000000000e+00,1.927635024484003201e-01
0.000000000000000000e+00,0.000000000000000000e+00,1.927635024484003201e-01
0.000000000000000000e+00,0.000000000000000000e+00,1.927635024484003201e-01
0.000000000000000000e+00,0.000000000000000000e+00,1.927635024484003201e-01
0.000000000000000000e+00,0.000000000000000000e+00,1.927635024484003201e-01
0.000000000000000000e+00,0.000000000000000000e+00,1.927635024484003201e-01
0.000000000000000000e+00,0.000000000000000000e+00,1.927635024484003201e-01
0.000000000000000000e+00,0.000000000000000000e+00,1.927635024484003201e-01
0.000000000000000000e+00,0.000000000000000000e+00,1.927635024484003201e-01
0.000000000000000000e+00,0.000000000000000000e+00,1.927635024484003201e-01
0.000000000000000000e+00,0.000000000000000000e+00,1.927635024484003201e-01
0.000000000000000000e+00,0.000000000000000000e+00,1.927635024484003201e-01
0.000000000000000000e+00,0.000000000000000000e+00,1.927635024484003201e-01
0.000000000000000000e+00,0.000000000000000000e+00,1.927635024484003201e-01
0.000000000000000000e+00,0.000000000000000000e+00,1.927635024484003201e-01
0.000000000000000000e+00,0.000000000000000000e+00,1.927635024484003201e-01
0.000000000000000000e+00,0.000000000000000000e+00,1.927635024484003201e-01
0.000000000000000000e+00,0.000000000000000000e+00,1.927635024484003201e-01
0.000000000000000000e+00,0.000000000000000000e+00,1.927635024484003201e-01
0.000000000000000000e+00,0.000000000000000000e+00,1.927635024484003201e-01
0.000000000000000000e+00,0.000000000000000000e+00,1.927635024484003201e-01
0.000000000000000000e+00,0.000000000000000000e+00,1.927635024484003201e-01
0.000000000000000000e+00,0.000000000000000000e+00,1.927635024484003201e-01
0.000000000000000000e+00,0.000000000000000000e+00,1.927635024484003201e-01
0.000000000000000000e+00,0.000000000000000000e+00,1.927635024484003201e-01
0.000000000000000000e+00,0.000000000000000000e+00,1.927635024484003201e-01
0.000000000000000000e+00,0.000000000000000000e+00,1.927635024484003201e-01
0.000000000000000000e+00,0.000000000000000000e+00,1.927635024484003201e-01
0.000000000000000000e+00,0.000000000000000000e+00,1.927635024484003201e-01
0.000000000000000000e+00,0.000000000000000000e+00,1.927635024484003201e-01
0.000000000000000000e+00,0.000000000000000000e+00,1.927635024484003201e-01
0.000000000000000000e+00,0.000000000000000000e+00,1.927635024484003201e-01
0.000000000000000000e+00,0.000000000000000000e+00,1.927635024484003201e-01
0.000000000000000000e+00,0.000000000000000000e+00,1.927635024484003201e-01
0.000000000000000000e+00,0.000000000000000000e+00,1.927635024484003201e-01
0.000000000000000000e+00,0.000000000000000000e+00,1.927635024484003201e-01
0.000000000000000000e+00,0.000000000000000000e+00,1.927635024484003201e-01
0.000000000000000000e+00,0.000000000000000000e+00,1.927635024484003201e-01
0.000000000000000000e+00,0.000000000000000000e+00,1.927635024484003201e-01
0.000000000000000000e+00,0.000000000000000000e+00,1.927635024484003201e-01
0.000000000000000000e+00,0.000000000000000000e+00,1.927635024484003201e-01
