1.420022036604112470e-01,-1.713507228061481591e-01,0.000000000000000000e+00
3.325879339013853020e-01,-4.870980207939962225e-01,0.000000000000000000e+00
3.721434628193233674e-01,-4.328289539523348384e-01,0.000000000000000000e+00
2.139213471475712447e-01,-1.195484317300168214e-01,0.000000000000000000e+00
-1.621991201134086180e-02,1.323580780956258628e-03,0.000000000000000000e+00
-2.463611711702529683e-01,2.332005027407821895e-01,0.000000000000000000e+00
-3.779565505748887222e-02,4.157419093900068252e-01,0.000000000000000000e+00
3.052753125531316308e-02,5.193464915422695283e-01,0.000000000000000000e+00
-9.027997662624857172e-03,7.906918257505763936e-01,0.000000000000000000e+00
4.850731712710316945e-02,8.350937895301174807e-01,0.000000000000000000e+00
-1.836083313908854061e-03,5.242800430733296491e-01,0.000000000000000000e+00
-1.262395483698285949e-02,2.085327450854815579e-01,0.000000000000000000e+00
-1.205026700677229168e-01,1.612423537413663552e-02,0.000000000000000000e+00
-1.456743702882289104e-01,-3.814483146752475212e-02,0.000000000000000000e+00
-1.960177707292409255e-01,-8.543522281163994439e-03,0.000000000000000000e+00
-1.384824559395129162e-01,-1.347707381222412043e-02,0.000000000000000000e+00
-1.924218135548829423e-01,-3.321127993646462440e-02,0.000000000000000000e+00
-1.852298992061669480e-01,-3.321127993646462440e-02,0.000000000000000000e+00
-1.924218135548829423e-01,-2.827772840540449667e-02,0.000000000000000000e+00
-1.960177707292409255e-01,-4.801193452964499370e-02,0.000000000000000000e+00
-2.104015994266729694e-01,-3.814483146752475212e-02,0.000000000000000000e+00
-2.175935137753889637e-01,-7.267969218494563233e-02,0.000000000000000000e+00
-2.643409570420430232e-01,-6.774614065388549766e-02,0.000000000000000000e+00
-2.139975566010309804e-01,-7.267969218494563233e-02,0.000000000000000000e+00
-2.463611711702529683e-01,-8.748034677812600857e-02,0.000000000000000000e+00
-2.823207429138330227e-01,-1.072145529023665056e-01,0.000000000000000000e+00
-2.859167000881909781e-01,-1.170816559644867610e-01,0.000000000000000000e+00
-2.607449998676850123e-01,-1.318823105576671373e-01,0.000000000000000000e+00
-2.679369142164010342e-01,-1.861513773993285215e-01,0.000000000000000000e+00
-2.967045716112650111e-01,-1.762842743372082799e-01,0.000000000000000000e+00
-2.319773424728210076e-01,-1.713507228061481591e-01,0.000000000000000000e+00
-2.643409570420430232e-01,-2.108191350546291531e-01,0.000000000000000000e+00
-1.888258563805249590e-01,-2.108191350546291531e-01,0.000000000000000000e+00
-1.960177707292409255e-01,-2.354868927099298126e-01,0.000000000000000000e+00
-1.420784131138708994e-01,-2.502875473031102027e-01,0.000000000000000000e+00
-7.375522680106889883e-02,-2.256197896478095433e-01,0.000000000000000000e+00
-1.621991201134086180e-02,-2.058855835235690046e-01,0.000000000000000000e+00
-1.621991201134086180e-02,-1.960184804614487630e-01,0.000000000000000000e+00
4.850731712710316945e-02,-1.614836197440279175e-01,0.000000000000000000e+00
7.367901734760917698e-02,-1.466829651508475274e-01,0.000000000000000000e+00
1.168305034399052117e-01,-1.072145529023665056e-01,0.000000000000000000e+00
1.168305034399052117e-01,-8.254679524706588778e-02,0.000000000000000000e+00
1.168305034399052117e-01,-6.774614065388549766e-02,0.000000000000000000e+00
1.707698610552752516e-01,-2.827772840540449667e-02,0.000000000000000000e+00
1.420022036604112470e-01,1.323580780956258628e-03,0.000000000000000000e+00
1.420022036604112470e-01,-8.543522281163994439e-03,0.000000000000000000e+00
1.420022036604112470e-01,-1.347707381222412043e-02,0.000000000000000000e+00
1.635779467065592574e-01,2.599133843625689097e-02,0.000000000000000000e+00
1.276183749629792308e-01,2.105778690519676324e-02,0.000000000000000000e+00
1.455981608347692302e-01,1.323580780956258628e-03,0.000000000000000000e+00
1.060426319168311926e-01,1.612423537413663552e-02,0.000000000000000000e+00
1.527900751834852244e-01,4.079199302943727068e-02,0.000000000000000000e+00
1.455981608347692302e-01,3.585844149837714295e-02,0.000000000000000000e+00
1.276183749629792308e-01,3.092488996731701523e-02,0.000000000000000000e+00
1.060426319168311926e-01,2.599133843625689097e-02,0.000000000000000000e+00
1.276183749629792308e-01,1.612423537413663552e-02,0.000000000000000000e+00
1.779617754039912458e-01,4.079199302943727068e-02,0.000000000000000000e+00
1.096385890911892036e-01,3.585844149837714295e-02,0.000000000000000000e+00
1.348102893116952250e-01,1.612423537413663552e-02,0.000000000000000000e+00
1.420022036604112470e-01,3.585844149837714295e-02,0.000000000000000000e+00
1.348102893116952250e-01,3.092488996731701523e-02,0.000000000000000000e+00
1.240224177886212337e-01,2.105778690519676324e-02,0.000000000000000000e+00
1.348102893116952250e-01,2.599133843625689097e-02,0.000000000000000000e+00
1.420022036604112470e-01,3.585844149837714295e-02,0.000000000000000000e+00
1.240224177886212337e-01,1.119068384307650953e-02,0.000000000000000000e+00
1.096385890911892036e-01,2.105778690519676324e-02,0.000000000000000000e+00
1.312143321373372140e-01,3.092488996731701523e-02,0.000000000000000000e+00
1.132345462655472146e-01,3.092488996731701523e-02,0.000000000000000000e+00
1.923456041014232620e-01,5.559264762261764692e-02,0.000000000000000000e+00
1.707698610552752516e-01,8.026040527791827861e-02,0.000000000000000000e+00
2.354970901937192551e-01,8.026040527791827861e-02,0.000000000000000000e+00
1.635779467065592574e-01,6.545975068473790237e-02,0.000000000000000000e+00
1.851536897527072678e-01,2.599133843625689097e-02,0.000000000000000000e+00
1.384062464860532360e-01,-3.814483146752475212e-02,0.000000000000000000e+00
1.096385890911892036e-01,-8.543522281163994439e-03,0.000000000000000000e+00
1.455981608347692302e-01,1.612423537413663552e-02,0.000000000000000000e+00
8.087093169632518508e-02,-2.334417687434437241e-02,0.000000000000000000e+00
8.446688887068319607e-02,-1.347707381222412043e-02,0.000000000000000000e+00
8.087093169632518508e-02,-2.827772840540449667e-02,0.000000000000000000e+00
9.525476039375720128e-02,1.323580780956258628e-03,0.000000000000000000e+00
8.446688887068319607e-02,-3.609970750103867580e-03,0.000000000000000000e+00
6.289114582453517177e-02,1.119068384307650953e-02,0.000000000000000000e+00
8.446688887068319607e-02,0.000000000000000000e+00,0.000000000000000000e+00
7.008306017325117987e-02,0.000000000000000000e+00,0.000000000000000000e+00
9.525476039375720128e-02,1.119068384307650953e-02,0.000000000000000000e+00
7.008306017325117987e-02,1.323580780956258628e-03,0.000000000000000000e+00
5.929518865017718160e-02,-3.609970750103867580e-03,0.000000000000000000e+00
9.885071756811519839e-02,1.119068384307650953e-02,0.000000000000000000e+00
9.525476039375720128e-02,-3.609970750103867580e-03,0.000000000000000000e+00
7.367901734760917698e-02,7.039330221579802316e-02,1.927635024484003201e-01
0.000000000000000000e+00,0.000000000000000000e+00,1.927635024484003201e-01
0.000000000000000000e+00,0.000000000000000000e+00,1.927635024484003201e-01
0.000000000000000000e+00,0.000000000000000000e+00,1.927635024484003201e-01
0.000000000000000000e+00,0.000000000000000000e+00,1.927635024484003201e-01
0.000000000000000000e+00,0.000000000000000000e+00,1.927635024484003201e-01
0.000000000000000000e+00,0.000000000000000000e+00,1.927635024484003201e-01
0.000000000000000000e+00,0.000000000000000000e+00,1.927635024484003201e-01
0.000000000000000000e+00,0.000000000000000000e+00,1.927635024484003201e-01
0.000000000000000000e+00,0.000000000000000000e+00,1.927635024484003201e-01
0.000000000000000000e+00,0.000000000000000000e+00,1.927635024484003201e-01
0.000000000000000000e+00,0.000000000000000000e+00,1.927635024484003201e-01
0.000000000000000000e+00,0.000000000000000000e+00,1.927635024484003201e-01
0.000000000000000000e+00,0.000000000000000000e+00,1.927635024484003201e-01
0.000000000000000000e+00,0.000000000000000000e+00,1.927635024484003201e-01
0.000000000000000000e+00,0.000000000000000000e+00,1.927635024484003201e-01
0.000000000000000000e+00,0.000000000000000000e+00,1.927635024484003201e-01
0.000000000000000000e+00,0.000000000000000000e+00,1.927635024484003201e-01
0.000000000000000000e+00,0.000000000000000000e+00,1.927635024484003201e-01
0.000000000000000000e+00,0.000000000000000000e+00,1.927635024484003201e-01
0.000000000000000000e+00,0.000000000000000000e+00,1.927635024484003201e-01
0.000000000000000000e+00,0.000000000000000000e+00,1.927635024484003201e-01
0.000000000000000000e+00,0.000000000000000000e+00,1.927635024484003201e-01
0.000000000000000000e+00,0.000000000000000000e+00,1.927635024484003201e-01
0.000000000000000000e+00,0.000000000000000000e+00,1.927635024484003201e-01
0.000000000000000000e+00,0.000000000000000000e+00,1.927635024484003201e-01
0.000000000000000000e+00,0.000000000000000000e+00,1.927635024484003201e-01
0.000000000000000000e+00,0.000000000000000000e+00,1.927635024484003201e-01
0.000000000000000000e+00,0.000000000000000000e+00,1.927635024484003201e-01
0.000000000000000000e+00,0.000000000000000000e+00,1.927635024484003201e-01
0.000000000000000000e+00,0.000000000000000000e+00,1.927635024484003201e-01
0.000000000000000000e+00,0.000000000000000000e+00,1.927635024484003201e-01
0.000000000000000000e+00,0.000000000000000000e+00,1.927635024484003201e-01
0.000000000000000000e+00,0.000000000000000000e+00,1.927635024484003201e-01
0.000000000000000000e+00,0.000000000000000000e+00,1.927635024484003201e-01
0.000000000000000000e+00,0.000000000000000000e+00,1.927635024484003201e-01
0.000000000000000000e+00,0.000000000000000000e+00,1.927635024484003201e-01
0.000000000000000000e+00,0.000000000000000000e+00,1.927635024484003201e-01
0.000000000000000000e+00,0.000000000000000000e+00,1.927635024484003201e-01
0.000000000000000000e+00,0.000000000000000000e+00,1.927635024484003201e-01
0.000000000000000000e+00,0.000000000000000000e+00,1.927635024484003201e-01
0.000000000000000000e+00,0.000000000000000000e+00,1.927635024484003201e-01
0.000000000000000000e+00,0.000000000000000000e+00,1.927635024484003201e-01
0.000000000000000000e+00,0.000000000000000000e+00,1.927635024484003201e-01
0.000000000000000000e+00,0.000000000000000000e+00,1.927635024484003201e-01
0.000000000000000000e+00,0.000000000000000000e+00,1.927635024484003201e-01
0.000000000000000000e+00,0.000000000000000000e+00,1.927635024484003201e-01
0.000000000000000000e+00,0.000000000000000000e+00,1.927635024484003201e-01
0.000000000000000000e+00,0.000000000000000000e+00,1.927635024484003201e-01
0.000000000000000000e+00,0.000000000000000000e+00,1.927635024484003201e-01
0.000000000000000000e+00,0.000000000000000000e+00,1.927635024484003201e-01
0.000000000000000000e+00,0.000000000000000000e+00,1.927635024484003201e-01
0.000000000000000000e+00,0.000000000000000000e+00,1.927635024484003201e-01
0.000000000000000000e+00,0.000000000000000000e+00,1.927635024484003201e-01
0.000000000000000000e+00,0.000000000000000000e+00,1.927635024484003201e-01
0.000000000000000000e+00,0.000000000000000000e+00,1.927635024484003201e-01
0.000000000000000000e+00,0.000000000000000000e+00,1.927635024484003201e-01
0.000000000000000000e+00,0.000000000000000000e+00,1.927635024484003201e-01
0.000000000000000000e+00,0.000000000000000000e+00,1.927635024484003201e-01
0.000000000000000000e+00,0.000000000000000000e+00,1.927635024484003201e-01
0.000000000000000000e+00,0.000000000000000000e+00,1.927635024484003201e-01
0.000000000000000000e+00,0.000000000000000000e+00,1.927635024484003201e-01
0.000000000000000000e+00,0.000000000000000000e+00,1.927635024484003201e-01
