1.348102893116952250e-01,1.612423537413663552e-02,0.000000000000000000e+00
2.822445334603732592e-01,-1.318823105576671373e-01,0.000000000000000000e+00
4.764262208757054085e-01,-4.476296085455152007e-01,0.000000000000000000e+00
6.526281224192475028e-01,-4.130947478280942997e-01,0.000000000000000000e+00
4.224868632603354102e-01,-9.981422560577633829e-02,0.000000000000000000e+00
1.923456041014232620e-01,4.079199302943727068e-02,0.000000000000000000e+00
-3.779565505748887222e-02,1.789314358991208054e-01,0.000000000000000000e+00
-1.262395483698285949e-02,3.417386364241049579e-01,0.000000000000000000e+00
1.348102893116952250e-01,4.848116308248485717e-01,0.000000000000000000e+00
1.743658182296332626e-01,7.314892073778548331e-01,0.000000000000000000e+00
1.132345462655472146e-01,8.449608925922378333e-01,0.000000000000000000e+00
1.024466747424731955e-01,6.476188313498327798e-01,0.000000000000000000e+00
8.806284604504119318e-02,3.318715333619847163e-01,0.000000000000000000e+00
9.525476039375720128e-02,1.612423537413663552e-02,0.000000000000000000e+00
3.412348842967116713e-02,-3.321127993646462440e-02,0.000000000000000000e+00
1.973965973223915787e-02,-4.801193452964499370e-02,0.000000000000000000e+00
8.951788209165152665e-03,-4.307838299858487291e-02,0.000000000000000000e+00
-9.027997662624857172e-03,-6.774614065388549766e-02,0.000000000000000000e+00
0.000000000000000000e+00,-5.787903759176525609e-02,0.000000000000000000e+00
-5.217948375492088148e-02,-8.748034677812600857e-02,0.000000000000000000e+00
-4.498756940620488032e-02,-7.761324371600575311e-02,0.000000000000000000e+00
-1.981586918569886238e-02,-5.294548606070512142e-02,0.000000000000000000e+00
-3.419969788313087511e-02,-8.748034677812600857e-02,0.000000000000000000e+00
-8.094714114978489305e-02,-1.170816559644867610e-01,0.000000000000000000e+00
-1.025228841959329035e-01,-1.269487590266070165e-01,0.000000000000000000e+00
-9.027997662624857172e-03,-8.748034677812600857e-02,0.000000000000000000e+00
-1.061188413702909145e-01,-1.220152074955468957e-01,0.000000000000000000e+00
-1.564622418113029434e-01,-1.269487590266070165e-01,0.000000000000000000e+00
-1.133107557190069226e-01,-1.516165166819076482e-01,0.000000000000000000e+00
-1.025228841959329035e-01,-1.762842743372082799e-01,0.000000000000000000e+00
-1.348864987651549052e-01,-1.960184804614487630e-01,0.000000000000000000e+00
-1.133107557190069226e-01,-2.108191350546291531e-01,0.000000000000000000e+00
-7.375522680106889883e-02,-2.453539957720500542e-01,0.000000000000000000e+00
-1.276945844164389110e-01,-2.601546503652304443e-01,0.000000000000000000e+00
-5.577544092927888553e-02,-2.552210988341702680e-01,0.000000000000000000e+00
-1.262395483698285949e-02,-2.601546503652304443e-01,0.000000000000000000e+00
8.951788209165152665e-03,-2.552210988341702680e-01,0.000000000000000000e+00
3.771944560402916424e-02,-2.453539957720500542e-01,0.000000000000000000e+00
9.525476039375720128e-02,-2.404204442409899056e-01,0.000000000000000000e+00
1.024466747424731955e-01,-2.256197896478095433e-01,0.000000000000000000e+00
1.743658182296332626e-01,-1.713507228061481591e-01,0.000000000000000000e+00
1.671739038809172406e-01,-1.861513773993285215e-01,0.000000000000000000e+00
1.599819895322012464e-01,-1.269487590266070165e-01,0.000000000000000000e+00
2.606687904142253043e-01,-1.269487590266070165e-01,0.000000000000000000e+00
2.390930473680772661e-01,-6.774614065388549766e-02,0.000000000000000000e+00
2.211132614962872667e-01,-2.827772840540449667e-02,0.000000000000000000e+00
2.426890045424352493e-01,-6.281258912282537687e-02,0.000000000000000000e+00
2.175173043219292557e-01,-3.814483146752475212e-02,0.000000000000000000e+00
2.283051758450032886e-01,0.000000000000000000e+00,0.000000000000000000e+00
2.247092186706452777e-01,0.000000000000000000e+00,0.000000000000000000e+00
2.067294327988552782e-01,-1.347707381222412043e-02,0.000000000000000000e+00
2.283051758450032886e-01,-8.543522281163994439e-03,0.000000000000000000e+00
1.815577325783492568e-01,-2.334417687434437241e-02,0.000000000000000000e+00
1.959415612757812730e-01,1.119068384307650953e-02,0.000000000000000000e+00
2.426890045424352493e-01,4.079199302943727068e-02,0.000000000000000000e+00
1.599819895322012464e-01,-1.347707381222412043e-02,0.000000000000000000e+00
1.420022036604112470e-01,-8.543522281163994439e-03,0.000000000000000000e+00
2.283051758450032886e-01,5.065909609155752613e-02,0.000000000000000000e+00
2.139213471475712447e-01,3.585844149837714295e-02,0.000000000000000000e+00
1.527900751834852244e-01,-3.609970750103867580e-03,0.000000000000000000e+00
1.743658182296332626e-01,-8.543522281163994439e-03,0.000000000000000000e+00
1.779617754039912458e-01,-1.841062534328424469e-02,0.000000000000000000e+00
1.743658182296332626e-01,0.000000000000000000e+00,0.000000000000000000e+00
1.743658182296332626e-01,4.572554456049739841e-02,0.000000000000000000e+00
1.743658182296332626e-01,2.105778690519676324e-02,0.000000000000000000e+00
1.024466747424731955e-01,-3.609970750103867580e-03,0.000000000000000000e+00
1.707698610552752516e-01,-3.609970750103867580e-03,0.000000000000000000e+00
1.563860323578432354e-01,2.599133843625689097e-02,0.000000000000000000e+00
1.312143321373372140e-01,1.612423537413663552e-02,0.000000000000000000e+00
1.132345462655472146e-01,-3.609970750103867580e-03,0.000000000000000000e+00
8.806284604504119318e-02,2.599133843625689097e-02,0.000000000000000000e+00
1.204264606142632227e-01,-3.609970750103867580e-03,0.000000000000000000e+00
1.204264606142632227e-01,4.572554456049739841e-02,0.000000000000000000e+00
1.420022036604112470e-01,7.039330221579802316e-02,0.000000000000000000e+00
1.887496469270652510e-01,9.012750834003853406e-02,0.000000000000000000e+00
1.563860323578432354e-01,8.026040527791827861e-02,0.000000000000000000e+00
1.384062464860532360e-01,4.572554456049739841e-02,0.000000000000000000e+00
1.887496469270652510e-01,5.065909609155752613e-02,0.000000000000000000e+00
1.060426319168311926e-01,-3.609970750103867580e-03,0.000000000000000000e+00
1.168305034399052117e-01,-3.609970750103867580e-03,0.000000000000000000e+00
9.165880321939919029e-02,-2.334417687434437241e-02,0.000000000000000000e+00
0.000000000000000000e+00,-4.307838299858487291e-02,0.000000000000000000e+00
1.168305034399052117e-01,-8.543522281163994439e-03,0.000000000000000000e+00
1.759873860449148036e-03,-8.543522281163994439e-03,0.000000000000000000e+00
7.367901734760917698e-02,1.119068384307650953e-02,0.000000000000000000e+00
7.727497452196718797e-02,1.323580780956258628e-03,0.000000000000000000e+00
-9.027997662624857172e-03,1.323580780956258628e-03,0.000000000000000000e+00
3.052753125531316308e-02,-1.347707381222412043e-02,0.000000000000000000e+00
1.254774538352315325e-02,-2.827772840540449667e-02,0.000000000000000000e+00
7.367901734760917698e-02,1.612423537413663552e-02,0.000000000000000000e+00
2.333561690659716192e-02,4.572554456049739841e-02,0.000000000000000000e+00
3.771944560402916424e-02,0.000000000000000000e+00,0.000000000000000000e+00
-4.139161223184688321e-02,-1.347707381222412043e-02,0.000000000000000000e+00
5.210327430146116656e-02,2.105778690519676324e-02,0.000000000000000000e+00
6.289114582453517177e-02,6.052619915367778158e-02,0.000000000000000000e+00
-9.027997662624857172e-03,7.532685374685815782e-02,1.927635024484003201e-01
0.000000000000000000e+00,0.000000000000000000e+00,1.927635024484003201e-01
0.000000000000000000e+00,0.000000000000000000e+00,1.927635024484003201e-01
0.000000000000000000e+00,0.000000000000000000e+00,1.927635024484003201e-01
0.000000000000000000e+00,0.000000000000000000e+00,1.927635024484003201e-01
0.000000000000000000e+00,0.000000000000000000e+00,1.927635024484003201e-01
0.000000000000000000e+00,0.000000000000000000e+00,1.927635024484003201e-01
0.000000000000000000e+00,0.000000000000000000e+00,1.927635024484003201e-01
0.000000000000000000e+00,0.000000000000000000e+00,1.927635024484003201e-01
0.000000000000000000e+00,0.000000000000000000e+00,1.927635024484003201e-01
0.000000000000000000e+00,0.000000000000000000e+00,1.927635024484003201e-01
0.000000000000000000e+00,0.000000000000000000e+00,1.927635024484003201e-01
0.000000000000000000e+00,0.000000000000000000e+00,1.927635024484003201e-01
0.000000000000000000e+00,0.000000000000000000e+00,1.927635024484003201e-01
0.000000000000000000e+00,0.000000000000000000e+00,1.927635024484003201e-01
0.000000000000000000e+00,0.000000000000000000e+00,1.927635024484003201e-01
0.000000000000000000e+00,0.000000000000000000e+00,1.927635024484003201e-01
0.000000000000000000e+00,0.000000000000000000e+00,1.927635024484003201e-01
0.000000000000000000e+00,0.000000000000000000e+00,1.927635024484003201e-01
0.000000000000000000e+00,0.000000000000000000e+00,1.927635024484003201e-01
0.000000000000000000e+00,0.000000000000000000e+00,1.927635024484003201e-01
0.000000000000000000e+00,0.000000000000000000e+00,1.927635024484003201e-01
0.000000000000000000e+00,0.000000000000000000e+00,1.927635024484003201e-01
0.000000000000000000e+00,0.000000000000000000e+00,1.927635024484003201e-01
0.000000000000000000e+00,0.000000000000000000e+00,1.927635024484003201e-01
0.000000000000000000e+00,0.000000000000000000e+00,1.927635024484003201e-01
0.000000000000000000e+00,0.000000000000000000e+00,1.927635024484003201e-01
0.000000000000000000e+00,0.000000000000000000e+00,1.927635024484003201e-01
0.000000000000000000e+00,0.000000000000000000e+00,1.927635024484003201e-01
0.000000000000000000e+00,0.000000000000000000e+00,1.927635024484003201e-01
0.000000000000000000e+00,0.000000000000000000e+00,1.927635024484003201e-01
0.000000000000000000e+00,0.000000000000000000e+00,1.927635024484003201e-01
0.000000000000000000e+00,0.000000000000000000e+00,1.927635024484003201e-01
0.000000000000000000e+00,0.000000000000000000e+00,1.927635024484003201e-01
0.000000000000000000e+00,0.000000000000000000e+00,1.927635024484003201e-01
0.000000000000000000e+00,0.000000000000000000e+00,1.927635024484003201e-01
0.000000000000000000e+00,0.000000000000000000e+00,1.927635024484003201e-01
0.000000000000000000e+00,0.000000000000000000e+00,1.927635024484003201e-01
0.000000000000000000e+00,0.000000000000000000e+00,1.927635024484003201e-01
0.000000000000000000e+00,0.000000000000000000e+00,1.927635024484003201e-01
0.000000000000000000e+00,0.000000000000000000e+00,1.927635024484003201e-01
0.000000000000000000e+00,0.000000000000000000e+00,1.927635024484003201e-01
0.000000000000000000e+00,0.000000000000000000e+00,1.927635024484003201e-01
0.000000000000000000e+00,0.000000000000000000e+00,1.927635024484003201e-01
0.000000000000000000e+00,0.000000000000000000e+00,1.927635024484003201e-01
0.000000000000000000e+00,0.000000000000000000e+00,1.927635024484003201e-01
0.000000000000000000e+00,0.000000000000000000e+00,1.927635024484003201e-01
0.000000000000000000e+00,0.000000000000000000e+00,1.927635024484003201e-01
0.000000000000000000e+00,0.000000000000000000e+00,1.927635024484003201e-01
0.000000000000000000e+00,0.000000000000000000e+00,1.927635024484003201e-01
0.000000000000000000e+00,0.000000000000000000e+00,1.927635024484003201e-01
0.000000000000000000e+00,0.000000000000000000e+00,1.927635024484003201e-01
0.000000000000000000e+00,0.000000000000000000e+00,1.927635024484003201e-01
0.000000000000000000e+00,0.000000000000000000e+00,1.927635024484003201e-01
0.000000000000000000e+00,0.000000000000000000e+00,1.927635024484003201e-01
0.000000000000000000e+00,0.000000000000000000e+00,1.927635024484003201e-01
0.000000000000000000e+00,0.000000000000000000e+00,1.927635024484003201e-01
