-1.981586918569886238e-02,6.545975068473790237e-02,0.000000000000000000e+00
8.806284604504119318e-02,-8.254679524706588778e-02,0.000000000000000000e+00
2.498809188911512713e-01,-3.982940932349139374e-01,0.000000000000000000e+00
4.656383493526313755e-01,-4.180282993591544205e-01,0.000000000000000000e+00
2.354970901937192551e-01,-1.047477771368364591e-01,0.000000000000000000e+00
0.000000000000000000e+00,7.039330221579802316e-02,0.000000000000000000e+00
-2.247854281241049301e-01,2.874695695824435737e-01,0.000000000000000000e+00
-1.816339420318089370e-01,4.601438731695480233e-01,0.000000000000000000e+00
-7.375522680106889883e-02,6.081504191013518135e-01,0.000000000000000000e+00
-5.577544092927888553e-02,9.041635109649591717e-01,0.000000000000000000e+00
-8.813905549850090115e-02,9.337648201513200075e-01,0.000000000000000000e+00
-1.492703274625869214e-01,6.180175221634720550e-01,0.000000000000000000e+00
-4.139161223184688321e-02,3.022702241756239916e-01,0.000000000000000000e+00
-1.097147985446489116e-01,-1.347707381222412043e-02,0.000000000000000000e+00
-9.892692702157489248e-02,0.000000000000000000e+00,0.000000000000000000e+00
-1.312905415907969220e-01,-2.334417687434437241e-02,0.000000000000000000e+00
-2.032096850779569475e-01,-3.814483146752475212e-02,0.000000000000000000e+00
-1.888258563805249590e-01,-3.814483146752475212e-02,0.000000000000000000e+00
-1.852298992061669480e-01,-3.814483146752475212e-02,0.000000000000000000e+00
-2.211894709497469746e-01,-5.787903759176525609e-02,0.000000000000000000e+00
-2.175935137753889637e-01,-5.787903759176525609e-02,0.000000000000000000e+00
-2.571490426933270013e-01,-5.787903759176525609e-02,0.000000000000000000e+00
-2.463611711702529683e-01,-6.281258912282537687e-02,0.000000000000000000e+00
-2.787247857394750117e-01,-8.254679524706588778e-02,0.000000000000000000e+00
-2.895126572625489891e-01,-9.734744984024626402e-02,0.000000000000000000e+00
-3.003005287856230221e-01,-9.734744984024626402e-02,0.000000000000000000e+00
-3.003005287856230221e-01,-1.121481044334266264e-01,0.000000000000000000e+00
-3.434520148779190429e-01,-1.170816559644867610e-01,0.000000000000000000e+00
-3.326641433548450655e-01,-1.516165166819076482e-01,0.000000000000000000e+00
-3.434520148779190429e-01,-1.614836197440279175e-01,0.000000000000000000e+00
-3.542398864009930759e-01,-1.713507228061481591e-01,0.000000000000000000e+00
-3.003005287856230221e-01,-1.910849289303886422e-01,0.000000000000000000e+00
-3.398560577035610319e-01,-2.108191350546291531e-01,0.000000000000000000e+00
-2.535530855189689903e-01,-2.108191350546291531e-01,0.000000000000000000e+00
-2.751288285651170562e-01,-2.453539957720500542e-01,0.000000000000000000e+00
-1.672501133343769208e-01,-2.404204442409899056e-01,0.000000000000000000e+00
-1.852298992061669480e-01,-2.108191350546291531e-01,0.000000000000000000e+00
-1.061188413702909145e-01,-2.108191350546291531e-01,0.000000000000000000e+00
-7.735118397542689594e-02,-1.861513773993285215e-01,0.000000000000000000e+00
-6.656331245235289074e-02,-1.713507228061481591e-01,0.000000000000000000e+00
-5.432040488266855725e-03,-1.664171712750880383e-01,0.000000000000000000e+00
3.412348842967116713e-02,-1.220152074955468957e-01,0.000000000000000000e+00
5.569923147581917061e-02,-7.761324371600575311e-02,0.000000000000000000e+00
5.929518865017718160e-02,-7.761324371600575311e-02,0.000000000000000000e+00
2.693157408095516250e-02,-3.814483146752475212e-02,0.000000000000000000e+00
8.087093169632518508e-02,1.119068384307650953e-02,0.000000000000000000e+00
2.333561690659716192e-02,0.000000000000000000e+00,0.000000000000000000e+00
4.131540277838716829e-02,2.599133843625689097e-02,0.000000000000000000e+00
2.693157408095516250e-02,3.585844149837714295e-02,0.000000000000000000e+00
8.951788209165152665e-03,3.585844149837714295e-02,0.000000000000000000e+00
4.850731712710316945e-02,4.079199302943727068e-02,0.000000000000000000e+00
-3.419969788313087511e-02,4.079199302943727068e-02,0.000000000000000000e+00
1.759873860449148036e-03,3.585844149837714295e-02,0.000000000000000000e+00
1.973965973223915787e-02,4.079199302943727068e-02,0.000000000000000000e+00
1.973965973223915787e-02,3.585844149837714295e-02,0.000000000000000000e+00
-2.700778353441486701e-02,2.599133843625689097e-02,0.000000000000000000e+00
1.240224177886212337e-01,8.519395680897841328e-02,0.000000000000000000e+00
-8.813905549850090115e-02,6.052619915367778158e-02,0.000000000000000000e+00
-2.700778353441486701e-02,3.585844149837714295e-02,0.000000000000000000e+00
-5.432040488266855725e-03,4.572554456049739841e-02,0.000000000000000000e+00
-5.577544092927888553e-02,5.559264762261764692e-02,0.000000000000000000e+00
-1.836083313908854061e-03,5.065909609155752613e-02,0.000000000000000000e+00
-4.858352658056287743e-02,4.079199302943727068e-02,0.000000000000000000e+00
-5.217948375492088148e-02,5.065909609155752613e-02,0.000000000000000000e+00
-1.621991201134086180e-02,3.092488996731701523e-02,0.000000000000000000e+00
-8.454309832414290404e-02,5.065909609155752613e-02,0.000000000000000000e+00
-1.262395483698285949e-02,6.052619915367778158e-02,0.000000000000000000e+00
-4.498756940620488032e-02,3.585844149837714295e-02,0.000000000000000000e+00
-2.700778353441486701e-02,3.585844149837714295e-02,0.000000000000000000e+00
-5.432040488266855725e-03,7.532685374685815782e-02,0.000000000000000000e+00
9.525476039375720128e-02,9.506105987109865485e-02,0.000000000000000000e+00
-1.262395483698285949e-02,1.246623690574594212e-01,0.000000000000000000e+00
4.850731712710316945e-02,9.012750834003853406e-02,0.000000000000000000e+00
1.254774538352315325e-02,7.532685374685815782e-02,0.000000000000000000e+00
-7.015926962671088785e-02,3.585844149837714295e-02,0.000000000000000000e+00
-5.577544092927888553e-02,1.612423537413663552e-02,0.000000000000000000e+00
-8.454309832414290404e-02,1.119068384307650953e-02,0.000000000000000000e+00
-7.015926962671088785e-02,0.000000000000000000e+00,0.000000000000000000e+00
-1.240986272420809000e-01,-3.609970750103867580e-03,0.000000000000000000e+00
-1.205026700677229168e-01,-2.827772840540449667e-02,0.000000000000000000e+00
-1.384824559395129162e-01,2.599133843625689097e-02,0.000000000000000000e+00
-5.937139810363688264e-02,3.585844149837714295e-02,0.000000000000000000e+00
-1.025228841959329035e-01,1.119068384307650953e-02,0.000000000000000000e+00
-1.133107557190069226e-01,1.119068384307650953e-02,0.000000000000000000e+00
-1.169067128933649058e-01,-3.609970750103867580e-03,0.000000000000000000e+00
-7.015926962671088785e-02,1.119068384307650953e-02,0.000000000000000000e+00
-1.169067128933649058e-01,2.105778690519676324e-02,0.000000000000000000e+00
-9.533096984721690925e-02,1.612423537413663552e-02,0.000000000000000000e+00
-1.097147985446489116e-01,1.612423537413663552e-02,0.000000000000000000e+00
-6.656331245235289074e-02,1.119068384307650953e-02,0.000000000000000000e+00
-1.025228841959329035e-01,8.026040527791827861e-02,1.927635024484003201e-01
0.000000000000000000e+00,0.000000000000000000e+00,1.927635024484003201e-01
0.000000000000000000e+00,0.000000000000000000e+00,1.927635024484003201e-01
0.000000000000000000e+00,0.000000000000000000e+00,1.927635024484003201e-01
0.000000000000000000e+00,0.000000000000000000e+00,1.927635024484003201e-01
0.000000000000000000e+00,0.000000000000000000e+00,1.927635024484003201e-01
0.000000000000000000e+00,0.000000000000000000e+00,1.927635024484003201e-01
0.000000000000000000e+00,0.000000000000000000e+00,1.927635024484003201e-01
0.000000000000000000e+00,0.000000000000000000e+00,1.927635024484003201e-01
0.000000000000000000e+00,0.000000000000000000e+00,1.927635024484003201e-01
0.000000000000000000e+00,0.000000000000000000e+00,1.927635024484003201e-01
0.000000000000000000e+00,0.000000000000000000e+00,1.927635024484003201e-01
0.000000000000000000e+00,0.000000000000000000e+00,1.927635024484003201e-01
0.000000000000000000e+00,0.000000000000000000e+00,1.927635024484003201e-01
0.000000000000000000e+00,0.000000000000000000e+00,1.927635024484003201e-01
0.000000000000000000e+00,0.000000000000000000e+00,1.927635024484003201e-01
0.000000000000000000e+00,0.000000000000000000e+00,1.927635024484003201e-01
0.000000000000000000e+00,0.000000000000000000e+00,1.927635024484003201e-01
0.000000000000000000e+00,0.000000000000000000e+00,1.927635024484003201e-01
0.000000000000000000e+00,0.000000000000000000e+00,1.927635024484003201e-01
0.000000000000000000e+00,0.000000000000000000e+00,1.927635024484003201e-01
0.000000000000000000e+00,0.000000000000000000e+00,1.927635024484003201e-01
0.000000000000000000e+00,0.000000000000000000e+00,1.927635024484003201e-01
0.000000000000000000e+00,0.000000000000000000e+00,1.927635024484003201e-01
0.000000000000000000e+00,0.000000000000000000e+00,1.927635024484003201e-01
0.000000000000000000e+00,0.000000000000000000e+00,1.927635024484003201e-01
0.000000000000000000e+00,0.000000000000000000e+00,1.927635024484003201e-01
0.000000000000000000e+00,0.000000000000000000e+00,1.927635024484003201e-01
0.000000000000000000e+00,0.000000000000000000e+00,1.927635024484003201e-01
0.000000000000000000e+00,0.000000000000000000e+00,1.927635024484003201e-01
0.000000000000000000e+00,0.000000000000000000e+00,1.927635024484003201e-01
0.000000000000000000e+00,0.000000000000000000e+00,1.927635024484003201e-01
0.000000000000000000e+00,0.000000000000000000e+00,1.927635024484003201e-01
0.000000000000000000e+00,0.000000000000000000e+00,1.927635024484003201e-01
0.000000000000000000e+00,0.000000000000000000e+00,1.927635024484003201e-01
0.000000000000000000e+00,0.000000000000000000e+00,1.927635024484003201e-01
0.000000000000000000e+00,0.000000000000000000e+00,1.927635024484003201e-01
0.000000000000000000e+00,0.000000000000000000e+00,1.927635024484003201e-01
0.000000000000000000e+00,0.000000000000000000e+00,1.927635024484003201e-01
0.000000000000000000e+00,0.000000000000000000e+00,1.927635024484003201e-01
0.000000000000000000e+00,0.000000000000000000e+00,1.927635024484003201e-01
0.000000000000000000e+00,0.000000000000000000e+00,1.927635024484003201e-01
0.000000000000000000e+00,0.000000000000000000e+00,1.927635024484003201e-01
0.000000000000000000e+00,0.000000000000000000e+00,1.927635024484003201e-01
0.000000000000000000e+00,0.000000000000000000e+00,1.927635024484003201e-01
0.000000000000000000e+00,0.000000000000000000e+00,1.927635024484003201e-01
0.000000000000000000e+00,0.000000000000000000e+00,1.927635024484003201e-01
0.000000000000000000e+00,0.000000000000000000e+00,1.927635024484003201e-01
0.000000000000000000e+00,0.000000000000000000e+00,1.927635024484003201e-01
0.000000000000000000e+00,0.000000000000000000e+00,1.927635024484003201e-01
0.000000000000000000e+00,0.000000000000000000e+00,1.927635024484003201e-01
0.000000000000000000e+00,0.000000000000000000e+00,1.927635024484003201e-01
0.000000000000000000e+00,0.000000000000000000e+00,1.927635024484003201e-01
0.000000000000000000e+00,0.000000000000000000e+00,1.927635024484003201e-01
0.000000000000000000e+00,0.000000000000000000e+00,1.927635024484003201e-01
0.000000000000000000e+00,0.000000000000000000e+00,1.927635024484003201e-01
0.000000000000000000e+00,0.000000000000000000e+00,1.927635024484003201e-01
0.000000000000000000e+00,0.000000000000000000e+00,1.927635024484003201e-01
0.000000000000000000e+00,0.000000000000000000e+00,1.927635024484003201e-01
0.000000000000000000e+00,0.000000000000000000e+00,1.927635024484003201e-01
0.000000000000000000e+00,0.000000000000000000e+00,1.927635024484003201e-01
0.000000000000000000e+00,0.000000000000000000e+00,1.927635024484003201e-01
