2.714566619372992817e-01,-2.453539957720500542e-01,0.000000000000000000e+00
4.997999425090324244e-01,-4.624302631386956186e-01,0.000000000000000000e+00
4.620423921782733645e-01,-1.491497409163775878e-01,0.000000000000000000e+00
4.584464350039153535e-01,1.641307813059404153e-01,0.000000000000000000e+00
2.283051758450032886e-01,1.443965751816999321e-01,0.000000000000000000e+00
1.759873860449148036e-03,2.628018119271429143e-01,0.000000000000000000e+00
1.779617754039912458e-01,4.256090124521271223e-01,0.000000000000000000e+00
2.175173043219292557e-01,5.736155583839309680e-01,0.000000000000000000e+00
1.923456041014232620e-01,7.956253772816365144e-01,0.000000000000000000e+00
1.348102893116952250e-01,6.920207951293738668e-01,0.000000000000000000e+00
1.599819895322012464e-01,3.762734971415258589e-01,0.000000000000000000e+00
-9.027997662624857172e-03,6.052619915367778158e-02,0.000000000000000000e+00
-1.276945844164389110e-01,-3.609970750103867580e-03,0.000000000000000000e+00
-6.296735527799489363e-02,1.119068384307650953e-02,0.000000000000000000e+00
-1.636541561600189376e-01,-8.543522281163994439e-03,0.000000000000000000e+00
-1.672501133343769208e-01,-1.347707381222412043e-02,0.000000000000000000e+00
-1.744420276830929428e-01,1.323580780956258628e-03,0.000000000000000000e+00
-2.068056422523149585e-01,-1.347707381222412043e-02,0.000000000000000000e+00
-1.924218135548829423e-01,-3.321127993646462440e-02,0.000000000000000000e+00
-2.391692568215370018e-01,3.092488996731701523e-02,0.000000000000000000e+00
-2.211894709497469746e-01,-2.334417687434437241e-02,0.000000000000000000e+00
-2.211894709497469746e-01,-5.787903759176525609e-02,0.000000000000000000e+00
-2.211894709497469746e-01,-2.334417687434437241e-02,0.000000000000000000e+00
-2.679369142164010342e-01,-4.307838299858487291e-02,0.000000000000000000e+00
-2.571490426933270013e-01,-5.294548606070512142e-02,0.000000000000000000e+00
-2.859167000881909781e-01,-4.801193452964499370e-02,0.000000000000000000e+00
-3.110884003086970551e-01,-7.267969218494563233e-02,0.000000000000000000e+00
-3.254722290061290435e-01,-8.254679524706588778e-02,0.000000000000000000e+00
-3.182803146574130770e-01,-1.072145529023665056e-01,0.000000000000000000e+00
-3.254722290061290435e-01,-1.022810013713063848e-01,0.000000000000000000e+00
-3.434520148779190429e-01,-1.318823105576671373e-01,0.000000000000000000e+00
-3.614318007497090424e-01,-1.466829651508475274e-01,0.000000000000000000e+00
-3.434520148779190429e-01,-1.614836197440279175e-01,0.000000000000000000e+00
-2.967045716112650111e-01,-1.664171712750880383e-01,0.000000000000000000e+00
-2.895126572625489891e-01,-1.861513773993285215e-01,0.000000000000000000e+00
-2.715328713907590452e-01,-2.058855835235690046e-01,0.000000000000000000e+00
-2.068056422523149585e-01,-2.058855835235690046e-01,0.000000000000000000e+00
-1.528662846369449324e-01,-2.009520319925089116e-01,0.000000000000000000e+00
-1.025228841959329035e-01,-1.614836197440279175e-01,0.000000000000000000e+00
-3.060374070877287106e-02,-1.565500682129677967e-01,0.000000000000000000e+00
3.052753125531316308e-02,-1.269487590266070165e-01,0.000000000000000000e+00
4.850731712710316945e-02,-1.368158620887272581e-01,0.000000000000000000e+00
1.168305034399052117e-01,-6.281258912282537687e-02,0.000000000000000000e+00
1.168305034399052117e-01,-5.294548606070512142e-02,0.000000000000000000e+00
1.096385890911892036e-01,-2.827772840540449667e-02,0.000000000000000000e+00
1.563860323578432354e-01,-2.334417687434437241e-02,0.000000000000000000e+00
1.491941180091272412e-01,3.092488996731701523e-02,0.000000000000000000e+00
1.635779467065592574e-01,1.612423537413663552e-02,0.000000000000000000e+00
1.096385890911892036e-01,1.147952659953391658e-01,0.000000000000000000e+00
1.348102893116952250e-01,-2.334417687434437241e-02,0.000000000000000000e+00
1.024466747424731955e-01,5.559264762261764692e-02,0.000000000000000000e+00
1.096385890911892036e-01,4.079199302943727068e-02,0.000000000000000000e+00
1.060426319168311926e-01,4.572554456049739841e-02,0.000000000000000000e+00
1.024466747424731955e-01,5.559264762261764692e-02,0.000000000000000000e+00
9.525476039375720128e-02,4.079199302943727068e-02,0.000000000000000000e+00
9.165880321939919029e-02,5.065909609155752613e-02,0.000000000000000000e+00
7.727497452196718797e-02,5.559264762261764692e-02,0.000000000000000000e+00
9.165880321939919029e-02,3.092488996731701523e-02,0.000000000000000000e+00
5.569923147581917061e-02,5.559264762261764692e-02,0.000000000000000000e+00
6.648710299889318276e-02,6.545975068473790237e-02,0.000000000000000000e+00
8.446688887068319607e-02,5.559264762261764692e-02,0.000000000000000000e+00
5.569923147581917061e-02,9.506105987109865485e-02,0.000000000000000000e+00
3.771944560402916424e-02,1.119068384307650953e-02,0.000000000000000000e+00
7.008306017325117987e-02,5.559264762261764692e-02,0.000000000000000000e+00
4.131540277838716829e-02,3.585844149837714295e-02,0.000000000000000000e+00
6.648710299889318276e-02,5.065909609155752613e-02,0.000000000000000000e+00
2.693157408095516250e-02,3.585844149837714295e-02,0.000000000000000000e+00
3.052753125531316308e-02,5.065909609155752613e-02,0.000000000000000000e+00
3.412348842967116713e-02,3.092488996731701523e-02,0.000000000000000000e+00
2.693157408095516250e-02,7.532685374685815782e-02,0.000000000000000000e+00
1.254774538352315325e-02,-3.609970750103867580e-03,0.000000000000000000e+00
1.973965973223915787e-02,4.079199302943727068e-02,0.000000000000000000e+00
3.412348842967116713e-02,5.559264762261764692e-02,0.000000000000000000e+00
1.759873860449148036e-03,2.599133843625689097e-02,0.000000000000000000e+00
1.614370255788115729e-02,4.572554456049739841e-02,0.000000000000000000e+00
4.131540277838716829e-02,8.519395680897841328e-02,0.000000000000000000e+00
6.648710299889318276e-02,6.052619915367778158e-02,0.000000000000000000e+00
1.060426319168311926e-01,1.147952659953391658e-01,0.000000000000000000e+00
9.885071756811519839e-02,9.506105987109865485e-02,0.000000000000000000e+00
5.210327430146116656e-02,4.572554456049739841e-02,0.000000000000000000e+00
4.131540277838716829e-02,3.092488996731701523e-02,0.000000000000000000e+00
4.131540277838716829e-02,2.105778690519676324e-02,0.000000000000000000e+00
-2.341182636005686643e-02,-2.827772840540449667e-02,0.000000000000000000e+00
-2.700778353441486701e-02,5.559264762261764692e-02,0.000000000000000000e+00
0.000000000000000000e+00,-2.827772840540449667e-02,0.000000000000000000e+00
-5.577544092927888553e-02,-2.827772840540449667e-02,0.000000000000000000e+00
-5.577544092927888553e-02,2.599133843625689097e-02,0.000000000000000000e+00
-1.981586918569886238e-02,2.599133843625689097e-02,0.000000000000000000e+00
-2.700778353441486701e-02,4.079199302943727068e-02,0.000000000000000000e+00
-5.577544092927888553e-02,1.612423537413663552e-02,0.000000000000000000e+00
-6.656331245235289074e-02,3.092488996731701523e-02,0.000000000000000000e+00
-3.419969788313087511e-02,1.119068384307650953e-02,0.000000000000000000e+00
-4.139161223184688321e-02,4.572554456049739841e-02,0.000000000000000000e+00
-6.656331245235289074e-02,1.323580780956258628e-03,0.000000000000000000e+00
-3.419969788313087511e-02,2.599133843625689097e-02,0.000000000000000000e+00
-3.779565505748887222e-02,3.092488996731701523e-02,0.000000000000000000e+00
-3.060374070877287106e-02,-8.543522281163994439e-03,0.000000000000000000e+00
1.254774538352315325e-02,1.147952659953391658e-01,0.000000000000000000e+00
4.131540277838716829e-02,2.105778690519676324e-02,1.927635024484003201e-01
0.000000000000000000e+00,0.000000000000000000e+00,1.927635024484003201e-01
0.000000000000000000e+00,0.000000000000000000e+00,1.927635024484003201e-01
0.000000000000000000e+00,0.000000000000000000e+00,1.927635024484003201e-01
0.000000000000000000e+00,0.000000000000000000e+00,1.927635024484003201e-01
0.000000000000000000e+00,0.000000000000000000e+00,1.927635024484003201e-01
0.000000000000000000e+00,0.000000000000000000e+00,1.927635024484003201e-01
0.000000000000000000e+00,0.000000000000000000e+00,1.927635024484003201e-01
0.000000000000000000e+00,0.000000000000000000e+00,1.927635024484003201e-01
0.000000000000000000e+00,0.000000000000000000e+00,1.927635024484003201e-01
0.000000000000000000e+00,0.000000000000000000e+00,1.927635024484003201e-01
0.000000000000000000e+00,0.000000000000000000e+00,1.927635024484003201e-01
0.000000000000000000e+00,0.000000000000000000e+00,1.927635024484003201e-01
0.000000000000000000e+00,0.000000000000000000e+00,1.927635024484003201e-01
0.000000000000000000e+00,0.000000000000000000e+00,1.927635024484003201e-01
0.000000000000000000e+00,0.000000000000000000e+00,1.927635024484003201e-01
0.000000000000000000e+00,0.000000000000000000e+00,1.927635024484003201e-01
0.000000000000000000e+00,0.000000000000000000e+00,1.927635024484003201e-01
0.000000000000000000e+00,0.000000000000000000e+00,1.927635024484003201e-01
0.000000000000000000e+00,0.000000000000000000e+00,1.927635024484003201e-01
0.000000000000000000e+00,0.000000000000000000e+00,1.927635024484003201e-01
0.000000000000000000e+00,0.000000000000000000e+00,1.927635024484003201e-01
0.000000000000000000e+00,0.000000000000000000e+00,1.927635024484003201e-01
0.000000000000000000e+00,0.000000000000000000e+00,1.927635024484003201e-01
0.000000000000000000e+00,0.000000000000000000e+00,1.927635024484003201e-01
0.000000000000000000e+00,0.000000000000000000e+00,1.927635024484003201e-01
0.000000000000000000e+00,0.000000000000000000e+00,1.927635024484003201e-01
0.000000000000000000e+00,0.000000000000000000e+00,1.927635024484003201e-01
0.000000000000000000e+00,0.000000000000000000e+00,1.927635024484003201e-01
0.000000000000000000e+00,0.000000000000000000e+00,1.927635024484003201e-01
0.000000000000000000e+00,0.000000000000000000e+00,1.927635024484003201e-01
0.000000000000000000e+00,0.000000000000000000e+00,1.927635024484003201e-01
0.000000000000000000e+00,0.000000000000000000e+00,1.927635024484003201e-01
0.000000000000000000e+00,0.000000000000000000e+00,1.927635024484003201e-01
0.000000000000000000e+00,0.000000000000000000e+00,1.927635024484003201e-01
0.000000000000000000e+00,0.000000000000000000e+00,1.927635024484003201e-01
0.000000000000000000e+00,0.000000000000000000e+00,1.927635024484003201e-01
0.000000000000000000e+00,0.000000000000000000e+00,1.927635024484003201e-01
0.000000000000000000e+00,0.000000000000000000e+00,1.927635024484003201e-01
0.000000000000000000e+00,0.000000000000000000e+00,1.927635024484003201e-01
0.000000000000000000e+00,0.000000000000000000e+00,1.927635024484003201e-01
0.000000000000000000e+00,0.000000000000000000e+00,1.927635024484003201e-01
0.000000000000000000e+00,0.000000000000000000e+00,1.927635024484003201e-01
0.000000000000000000e+00,0.000000000000000000e+00,1.927635024484003201e-01
0.000000000000000000e+00,0.000000000000000000e+00,1.927635024484003201e-01
0.000000000000000000e+00,0.000000000000000000e+00,1.927635024484003201e-01
0.000000000000000000e+00,0.000000000000000000e+00,1.927635024484003201e-01
0.000000000000000000e+00,0.000000000000000000e+00,1.927635024484003201e-01
0.000000000000000000e+00,0.000000000000000000e+00,1.927635024484003201e-01
0.000000000000000000e+00,0.000000000000000000e+00,1.927635024484003201e-01
0.000000000000000000e+00,0.000000000000000000e+00,1.927635024484003201e-01
0.000000000000000000e+00,0.000000000000000000e+00,1.927635024484003201e-01
0.000000000000000000e+00,0.000000000000000000e+00,1.927635024484003201e-01
0.000000000000000000e+00,0.000000000000000000e+00,1.927635024484003201e-01
