1.254774538352315325e-02,-1.347707381222412043e-02,0.000000000000000000e+00
2.139213471475712447e-01,-3.292243718000721908e-01,0.000000000000000000e+00
4.422646277193043596e-01,-5.561677422288379136e-01,0.000000000000000000e+00
2.283051758450032886e-01,-2.428872200065199938e-01,0.000000000000000000e+00
3.865272915167553558e-01,7.039330221579802316e-02,0.000000000000000000e+00
1.563860323578432354e-01,1.049281629332189242e-01,0.000000000000000000e+00
-7.375522680106889883e-02,3.318715333619847163e-01,0.000000000000000000e+00
2.693157408095516250e-02,4.749445277627283857e-01,0.000000000000000000e+00
4.491135995274516540e-02,6.574859344119530213e-01,0.000000000000000000e+00
-1.981586918569886238e-02,8.449608925922378333e-01,0.000000000000000000e+00
-5.432040488266855725e-03,7.364227589089149539e-01,0.000000000000000000e+00
6.289114582453517177e-02,4.206754609210670015e-01,0.000000000000000000e+00
-1.169067128933649058e-01,1.049281629332189242e-01,0.000000000000000000e+00
-2.032096850779569475e-01,-8.543522281163994439e-03,0.000000000000000000e+00
-2.032096850779569475e-01,-2.827772840540449667e-02,0.000000000000000000e+00
-2.032096850779569475e-01,-3.321127993646462440e-02,0.000000000000000000e+00
-2.104015994266729694e-01,-3.321127993646462440e-02,0.000000000000000000e+00
-2.355732996471789908e-01,-3.814483146752475212e-02,0.000000000000000000e+00
-2.571490426933270013e-01,-4.801193452964499370e-02,0.000000000000000000e+00
-2.355732996471789908e-01,-4.307838299858487291e-02,0.000000000000000000e+00
-2.355732996471789908e-01,-3.321127993646462440e-02,0.000000000000000000e+00
-2.643409570420430232e-01,-5.787903759176525609e-02,0.000000000000000000e+00
-2.643409570420430232e-01,-6.281258912282537687e-02,0.000000000000000000e+00
-2.787247857394750117e-01,-6.281258912282537687e-02,0.000000000000000000e+00
-3.074924431343390441e-01,-8.254679524706588778e-02,0.000000000000000000e+00
-2.931086144369070001e-01,-8.254679524706588778e-02,0.000000000000000000e+00
-3.290681861804870545e-01,-8.748034677812600857e-02,0.000000000000000000e+00
-3.326641433548450655e-01,-1.220152074955468957e-01,0.000000000000000000e+00
-3.290681861804870545e-01,-1.368158620887272581e-01,0.000000000000000000e+00
-3.074924431343390441e-01,-1.269487590266070165e-01,0.000000000000000000e+00
-3.254722290061290435e-01,-1.614836197440279175e-01,0.000000000000000000e+00
-2.715328713907590452e-01,-1.713507228061481591e-01,0.000000000000000000e+00
-2.607449998676850123e-01,-1.762842743372082799e-01,0.000000000000000000e+00
-2.391692568215370018e-01,-2.009520319925089116e-01,0.000000000000000000e+00
-1.600581989856609266e-01,-1.960184804614487630e-01,0.000000000000000000e+00
-1.276945844164389110e-01,-1.664171712750880383e-01,0.000000000000000000e+00
-9.173501267285891214e-02,-1.664171712750880383e-01,0.000000000000000000e+00
-5.577544092927888553e-02,-1.614836197440279175e-01,0.000000000000000000e+00
-2.341182636005686643e-02,-1.318823105576671373e-01,0.000000000000000000e+00
3.412348842967116713e-02,-9.241389830918614323e-02,0.000000000000000000e+00
2.693157408095516250e-02,-6.774614065388549766e-02,0.000000000000000000e+00
4.131540277838716829e-02,-4.801193452964499370e-02,0.000000000000000000e+00
4.850731712710316945e-02,-4.801193452964499370e-02,0.000000000000000000e+00
8.446688887068319607e-02,-8.543522281163994439e-03,0.000000000000000000e+00
5.569923147581917061e-02,1.612423537413663552e-02,0.000000000000000000e+00
4.850731712710316945e-02,1.119068384307650953e-02,0.000000000000000000e+00
4.491135995274516540e-02,2.105778690519676324e-02,0.000000000000000000e+00
4.850731712710316945e-02,4.079199302943727068e-02,0.000000000000000000e+00
3.412348842967116713e-02,2.599133843625689097e-02,0.000000000000000000e+00
3.771944560402916424e-02,2.599133843625689097e-02,0.000000000000000000e+00
2.693157408095516250e-02,3.092488996731701523e-02,0.000000000000000000e+00
3.771944560402916424e-02,3.585844149837714295e-02,0.000000000000000000e+00
2.693157408095516250e-02,2.599133843625689097e-02,0.000000000000000000e+00
4.850731712710316945e-02,4.079199302943727068e-02,0.000000000000000000e+00
2.693157408095516250e-02,3.092488996731701523e-02,0.000000000000000000e+00
2.693157408095516250e-02,2.599133843625689097e-02,0.000000000000000000e+00
3.412348842967116713e-02,4.079199302943727068e-02,0.000000000000000000e+00
1.614370255788115729e-02,2.599133843625689097e-02,0.000000000000000000e+00
1.614370255788115729e-02,3.092488996731701523e-02,0.000000000000000000e+00
2.333561690659716192e-02,3.092488996731701523e-02,0.000000000000000000e+00
1.254774538352315325e-02,1.612423537413663552e-02,0.000000000000000000e+00
-1.836083313908854061e-03,1.119068384307650953e-02,0.000000000000000000e+00
0.000000000000000000e+00,3.092488996731701523e-02,0.000000000000000000e+00
2.333561690659716192e-02,2.599133843625689097e-02,0.000000000000000000e+00
-1.836083313908854061e-03,2.105778690519676324e-02,0.000000000000000000e+00
-9.027997662624857172e-03,1.612423537413663552e-02,0.000000000000000000e+00
1.973965973223915787e-02,0.000000000000000000e+00,0.000000000000000000e+00
1.759873860449148036e-03,1.612423537413663552e-02,0.000000000000000000e+00
-1.621991201134086180e-02,4.572554456049739841e-02,0.000000000000000000e+00
-5.432040488266855725e-03,2.105778690519676324e-02,0.000000000000000000e+00
-1.621991201134086180e-02,1.323580780956258628e-03,0.000000000000000000e+00
-1.836083313908854061e-03,2.599133843625689097e-02,0.000000000000000000e+00
-1.981586918569886238e-02,0.000000000000000000e+00,0.000000000000000000e+00
-1.262395483698285949e-02,1.323580780956258628e-03,0.000000000000000000e+00
-9.027997662624857172e-03,2.105778690519676324e-02,0.000000000000000000e+00
-1.262395483698285949e-02,0.000000000000000000e+00,0.000000000000000000e+00
1.759873860449148036e-03,0.000000000000000000e+00,0.000000000000000000e+00
-9.027997662624857172e-03,0.000000000000000000e+00,0.000000000000000000e+00
-1.981586918569886238e-02,1.119068384307650953e-02,0.000000000000000000e+00
1.973965973223915787e-02,0.000000000000000000e+00,0.000000000000000000e+00
-2.700778353441486701e-02,1.119068384307650953e-02,0.000000000000000000e+00
1.759873860449148036e-03,1.612423537413663552e-02,0.000000000000000000e+00
1.973965973223915787e-02,1.612423537413663552e-02,0.000000000000000000e+00
-2.700778353441486701e-02,1.612423537413663552e-02,0.000000000000000000e+00
1.614370255788115729e-02,1.323580780956258628e-03,0.000000000000000000e+00
-5.432040488266855725e-03,1.119068384307650953e-02,0.000000000000000000e+00
2.333561690659716192e-02,1.119068384307650953e-02,0.000000000000000000e+00
4.491135995274516540e-02,1.612423537413663552e-02,0.000000000000000000e+00
1.254774538352315325e-02,0.000000000000000000e+00,0.000000000000000000e+00
0.000000000000000000e+00,0.000000000000000000e+00,0.000000000000000000e+00
1.973965973223915787e-02,1.119068384307650953e-02,0.000000000000000000e+00
6.289114582453517177e-02,4.572554456049739841e-02,0.000000000000000000e+00
8.806284604504119318e-02,6.545975068473790237e-02,0.000000000000000000e+00
9.165880321939919029e-02,8.026040527791827861e-02,0.000000000000000000e+00
1.168305034399052117e-01,7.532685374685815782e-02,0.000000000000000000e+00
1.096385890911892036e-01,7.039330221579802316e-02,0.000000000000000000e+00
1.060426319168311926e-01,2.599133843625689097e-02,0.000000000000000000e+00
6.648710299889318276e-02,-1.841062534328424469e-02,0.000000000000000000e+00
4.491135995274516540e-02,-8.543522281163994439e-03,0.000000000000000000e+00
3.771944560402916424e-02,-8.543522281163994439e-03,0.000000000000000000e+00
3.412348842967116713e-02,-3.609970750103867580e-03,0.000000000000000000e+00
-5.432040488266855725e-03,-2.334417687434437241e-02,0.000000000000000000e+00
0.000000000000000000e+00,-3.321127993646462440e-02,0.000000000000000000e+00
1.254774538352315325e-02,1.119068384307650953e-02,0.000000000000000000e+00
1.614370255788115729e-02,1.323580780956258628e-03,0.000000000000000000e+00
8.951788209165152665e-03,0.000000000000000000e+00,0.000000000000000000e+00
0.000000000000000000e+00,0.000000000000000000e+00,0.000000000000000000e+00
4.131540277838716829e-02,2.105778690519676324e-02,0.000000000000000000e+00
1.973965973223915787e-02,-8.543522281163994439e-03,0.000000000000000000e+00
1.254774538352315325e-02,1.323580780956258628e-03,0.000000000000000000e+00
-1.981586918569886238e-02,1.119068384307650953e-02,0.000000000000000000e+00
5.210327430146116656e-02,1.119068384307650953e-02,0.000000000000000000e+00
4.131540277838716829e-02,1.323580780956258628e-03,0.000000000000000000e+00
3.052753125531316308e-02,9.506105987109865485e-02,1.927635024484003201e-01
0.000000000000000000e+00,0.000000000000000000e+00,1.927635024484003201e-01
0.000000000000000000e+00,0.000000000000000000e+00,1.927635024484003201e-01
0.000000000000000000e+00,0.000000000000000000e+00,1.927635024484003201e-01
0.000000000000000000e+00,0.000000000000000000e+00,1.927635024484003201e-01
0.000000000000000000e+00,0.000000000000000000e+00,1.927635024484003201e-01
0.000000000000000000e+00,0.000000000000000000e+00,1.927635024484003201e-01
0.000000000000000000e+00,0.000000000000000000e+00,1.927635024484003201e-01
0.000000000000000000e+00,0.000000000000000000e+00,1.927635024484003201e-01
0.000000000000000000e+00,0.000000000000000000e+00,1.927635024484003201e-01
0.000000000000000000e+00,0.000000000000000000e+00,1.927635024484003201e-01
0.000000000000000000e+00,0.000000000000000000e+00,1.927635024484003201e-01
0.000000000000000000e+00,0.000000000000000000e+00,1.927635024484003201e-01
0.000000000000000000e+00,0.000000000000000000e+00,1.927635024484003201e-01
0.000000000000000000e+00,0.000000000000000000e+00,1.927635024484003201e-01
0.000000000000000000e+00,0.000000000000000000e+00,1.927635024484003201e-01
0.000000000000000000e+00,0.000000000000000000e+00,1.927635024484003201e-01
0.000000000000000000e+00,0.000000000000000000e+00,1.927635024484003201e-01
0.000000000000000000e+00,0.000000000000000000e+00,1.927635024484003201e-01
0.000000000000000000e+00,0.000000000000000000e+00,1.927635024484003201e-01
0.000000000000000000e+00,0.000000000000000000e+00,1.927635024484003201e-01
0.000000000000000000e+00,0.000000000000000000e+00,1.927635024484003201e-01
0.000000000000000000e+00,0.000000000000000000e+00,1.927635024484003201e-01
0.000000000000000000e+00,0.000000000000000000e+00,1.927635024484003201e-01
0.000000000000000000e+00,0.000000000000000000e+00,1.927635024484003201e-01
0.000000000000000000e+00,0.000000000000000000e+00,1.927635024484003201e-01
0.000000000000000000e+00,0.000000000000000000e+00,1.927635024484003201e-01
0.000000000000000000e+00,0.000000000000000000e+00,1.927635024484003201e-01
0.000000000000000000e+00,0.000000000000000000e+00,1.927635024484003201e-01
0.000000000000000000e+00,0.000000000000000000e+00,1.927635024484003201e-01
0.000000000000000000e+00,0.000000000000000000e+00,1.927635024484003201e-01
0.000000000000000000e+00,0.000000000000000000e+00,1.927635024484003201e-01
0.000000000000000000e+00,0.000000000000000000e+00,1.927635024484003201e-01
0.000000000000000000e+00,0.000000000000000000e+00,1.927635024484003201e-01
0.000000000000000000e+00,0.000000000000000000e+00,1.927635024484003201e-01
0.000000000000000000e+00,0.000000000000000000e+00,1.927635024484003201e-01
0.000000000000000000e+00,0.000000000000000000e+00,1.927635024484003201e-01
0.000000000000000000e+00,0.000000000000000000e+00,1.927635024484003201e-01
0.000000000000000000e+00,0.000000000000000000e+00,1.927635024484003201e-01
