1.614370255788115729e-02,-7.267969218494563233e-02,0.000000000000000000e+00
2.283051758450032886e-01,-3.884269901727937513e-01,0.000000000000000000e+00
4.045070773885453552e-01,-6.893736335674615079e-01,0.000000000000000000e+00
1.743658182296332626e-01,-3.760931113451433938e-01,0.000000000000000000e+00
1.779617754039912458e-01,-6.281258912282537687e-02,0.000000000000000000e+00
-5.217948375492088148e-02,1.739978843680606846e-01,0.000000000000000000e+00
-2.032096850779569475e-01,3.368050848930448371e-01,0.000000000000000000e+00
-4.858352658056287743e-02,4.946787338869688688e-01,0.000000000000000000e+00
3.412348842967116713e-02,6.821536920672536253e-01,0.000000000000000000e+00
-7.735118397542689594e-02,8.449608925922378333e-01,0.000000000000000000e+00
-1.981586918569886238e-02,7.314892073778548331e-01,0.000000000000000000e+00
-1.262395483698285949e-02,4.157419093900068252e-01,0.000000000000000000e+00
-1.348864987651549052e-01,9.999461140215877564e-02,0.000000000000000000e+00
-1.852298992061669480e-01,-2.827772840540449667e-02,0.000000000000000000e+00
-1.744420276830929428e-01,-2.827772840540449667e-02,0.000000000000000000e+00
-1.996137279035989365e-01,-3.814483146752475212e-02,0.000000000000000000e+00
-1.996137279035989365e-01,-3.814483146752475212e-02,0.000000000000000000e+00
-1.924218135548829423e-01,-4.801193452964499370e-02,0.000000000000000000e+00
-2.319773424728210076e-01,-6.281258912282537687e-02,0.000000000000000000e+00
-2.427652139958950128e-01,-7.267969218494563233e-02,0.000000000000000000e+00
-2.391692568215370018e-01,-6.774614065388549766e-02,0.000000000000000000e+00
-2.139975566010309804e-01,-6.281258912282537687e-02,0.000000000000000000e+00
-2.679369142164010342e-01,-7.761324371600575311e-02,0.000000000000000000e+00
-2.787247857394750117e-01,-9.734744984024626402e-02,0.000000000000000000e+00
-2.823207429138330227e-01,-1.072145529023665056e-01,0.000000000000000000e+00
-2.787247857394750117e-01,-1.072145529023665056e-01,0.000000000000000000e+00
-3.110884003086970551e-01,-1.121481044334266264e-01,0.000000000000000000e+00
-3.290681861804870545e-01,-1.318823105576671373e-01,0.000000000000000000e+00
-3.218762718317710325e-01,-1.565500682129677967e-01,0.000000000000000000e+00
-3.362601005292030765e-01,-1.762842743372082799e-01,0.000000000000000000e+00
-3.506439292266350649e-01,-2.058855835235690046e-01,0.000000000000000000e+00
-3.218762718317710325e-01,-2.009520319925089116e-01,0.000000000000000000e+00
-2.679369142164010342e-01,-2.206862381167494225e-01,0.000000000000000000e+00
-2.751288285651170562e-01,-2.502875473031102027e-01,0.000000000000000000e+00
-2.643409570420430232e-01,-2.552210988341702680e-01,0.000000000000000000e+00
-1.564622418113029434e-01,-2.256197896478095433e-01,0.000000000000000000e+00
-1.600581989856609266e-01,-2.404204442409899056e-01,0.000000000000000000e+00
-8.094714114978489305e-02,-2.058855835235690046e-01,0.000000000000000000e+00
-5.937139810363688264e-02,-2.206862381167494225e-01,0.000000000000000000e+00
-1.621991201134086180e-02,-1.861513773993285215e-01,0.000000000000000000e+00
5.929518865017718160e-02,-1.220152074955468957e-01,0.000000000000000000e+00
3.771944560402916424e-02,-1.022810013713063848e-01,0.000000000000000000e+00
8.806284604504119318e-02,-7.761324371600575311e-02,0.000000000000000000e+00
7.008306017325117987e-02,-6.774614065388549766e-02,0.000000000000000000e+00
1.024466747424731955e-01,-4.801193452964499370e-02,0.000000000000000000e+00
9.525476039375720128e-02,-5.294548606070512142e-02,0.000000000000000000e+00
4.491135995274516540e-02,-2.827772840540449667e-02,0.000000000000000000e+00
1.455981608347692302e-01,-3.609970750103867580e-03,0.000000000000000000e+00
3.052753125531316308e-02,-8.543522281163994439e-03,0.000000000000000000e+00
8.806284604504119318e-02,-1.841062534328424469e-02,0.000000000000000000e+00
7.008306017325117987e-02,1.612423537413663552e-02,0.000000000000000000e+00
1.614370255788115729e-02,-1.841062534328424469e-02,0.000000000000000000e+00
7.727497452196718797e-02,1.612423537413663552e-02,0.000000000000000000e+00
3.052753125531316308e-02,1.323580780956258628e-03,0.000000000000000000e+00
6.648710299889318276e-02,1.119068384307650953e-02,0.000000000000000000e+00
4.491135995274516540e-02,2.105778690519676324e-02,0.000000000000000000e+00
5.929518865017718160e-02,1.323580780956258628e-03,0.000000000000000000e+00
3.771944560402916424e-02,1.323580780956258628e-03,0.000000000000000000e+00
4.850731712710316945e-02,1.119068384307650953e-02,0.000000000000000000e+00
4.491135995274516540e-02,1.119068384307650953e-02,0.000000000000000000e+00
5.929518865017718160e-02,0.000000000000000000e+00,0.000000000000000000e+00
8.087093169632518508e-02,1.612423537413663552e-02,0.000000000000000000e+00
1.973965973223915787e-02,1.119068384307650953e-02,0.000000000000000000e+00
2.333561690659716192e-02,1.612423537413663552e-02,0.000000000000000000e+00
7.367901734760917698e-02,2.105778690519676324e-02,0.000000000000000000e+00
8.951788209165152665e-03,1.612423537413663552e-02,0.000000000000000000e+00
4.491135995274516540e-02,1.323580780956258628e-03,0.000000000000000000e+00
1.614370255788115729e-02,1.612423537413663552e-02,0.000000000000000000e+00
1.614370255788115729e-02,0.000000000000000000e+00,0.000000000000000000e+00
6.289114582453517177e-02,-3.609970750103867580e-03,0.000000000000000000e+00
-2.700778353441486701e-02,2.105778690519676324e-02,0.000000000000000000e+00
3.052753125531316308e-02,2.599133843625689097e-02,0.000000000000000000e+00
2.693157408095516250e-02,3.092488996731701523e-02,0.000000000000000000e+00
2.693157408095516250e-02,5.065909609155752613e-02,0.000000000000000000e+00
1.132345462655472146e-01,8.519395680897841328e-02,0.000000000000000000e+00
5.569923147581917061e-02,7.532685374685815782e-02,0.000000000000000000e+00
9.885071756811519839e-02,8.026040527791827861e-02,0.000000000000000000e+00
1.204264606142632227e-01,5.559264762261764692e-02,0.000000000000000000e+00
1.973965973223915787e-02,-3.609970750103867580e-03,0.000000000000000000e+00
3.771944560402916424e-02,1.323580780956258628e-03,0.000000000000000000e+00
1.973965973223915787e-02,1.612423537413663552e-02,0.000000000000000000e+00
-9.027997662624857172e-03,-3.321127993646462440e-02,0.000000000000000000e+00
-1.621991201134086180e-02,-2.827772840540449667e-02,0.000000000000000000e+00
-9.027997662624857172e-03,-4.307838299858487291e-02,0.000000000000000000e+00
-9.027997662624857172e-03,-8.543522281163994439e-03,0.000000000000000000e+00
-1.621991201134086180e-02,-2.827772840540449667e-02,0.000000000000000000e+00
3.771944560402916424e-02,3.585844149837714295e-02,0.000000000000000000e+00
-1.262395483698285949e-02,-1.347707381222412043e-02,0.000000000000000000e+00
-3.060374070877287106e-02,-8.543522281163994439e-03,0.000000000000000000e+00
-5.432040488266855725e-03,0.000000000000000000e+00,0.000000000000000000e+00
1.614370255788115729e-02,-8.543522281163994439e-03,0.000000000000000000e+00
-1.262395483698285949e-02,1.323580780956258628e-03,0.000000000000000000e+00
0.000000000000000000e+00,-3.609970750103867580e-03,0.000000000000000000e+00
1.973965973223915787e-02,1.119068384307650953e-02,0.000000000000000000e+00
1.614370255788115729e-02,-8.543522281163994439e-03,0.000000000000000000e+00
1.254774538352315325e-02,9.012750834003853406e-02,1.927635024484003201e-01
0.000000000000000000e+00,0.000000000000000000e+00,1.927635024484003201e-01
0.000000000000000000e+00,0.000000000000000000e+00,1.927635024484003201e-01
0.000000000000000000e+00,0.000000000000000000e+00,1.927635024484003201e-01
0.000000000000000000e+00,0.000000000000000000e+00,1.927635024484003201e-01
0.000000000000000000e+00,0.000000000000000000e+00,1.927635024484003201e-01
0.000000000000000000e+00,0.000000000000000000e+00,1.927635024484003201e-01
0.000000000000000000e+00,0.000000000000000000e+00,1.927635024484003201e-01
0.000000000000000000e+00,0.000000000000000000e+00,1.927635024484003201e-01
0.000000000000000000e+00,0.000000000000000000e+00,1.927635024484003201e-01
0.000000000000000000e+00,0.000000000000000000e+00,1.927635024484003201e-01
0.000000000000000000e+00,0.000000000000000000e+00,1.927635024484003201e-01
0.000000000000000000e+00,0.000000000000000000e+00,1.927635024484003201e-01
0.000000000000000000e+00,0.000000000000000000e+00,1.927635024484003201e-01
0.000000000000000000e+00,0.000000000000000000e+00,1.927635024484003201e-01
0.000000000000000000e+00,0.000000000000000000e+00,1.927635024484003201e-01
0.000000000000000000e+00,0.000000000000000000e+00,1.927635024484003201e-01
0.000000000000000000e+00,0.000000000000000000e+00,1.927635024484003201e-01
0.000000000000000000e+00,0.000000000000000000e+00,1.927635024484003201e-01
0.000000000000000000e+00,0.000000000000000000e+00,1.927635024484003201e-01
0.000000000000000000e+00,0.000000000000000000e+00,1.927635024484003201e-01
0.000000000000000000e+00,0.000000000000000000e+00,1.927635024484003201e-01
0.000000000000000000e+00,0.000000000000000000e+00,1.927635024484003201e-01
0.000000000000000000e+00,0.000000000000000000e+00,1.927635024484003201e-01
0.000000000000000000e+00,0.000000000000000000e+00,1.927635024484003201e-01
0.000000000000000000e+00,0.000000000000000000e+00,1.927635024484003201e-01
0.000000000000000000e+00,0.000000000000000000e+00,1.927635024484003201e-01
0.000000000000000000e+00,0.000000000000000000e+00,1.927635024484003201e-01
0.000000000000000000e+00,0.000000000000000000e+00,1.927635024484003201e-01
0.000000000000000000e+00,0.000000000000000000e+00,1.927635024484003201e-01
0.000000000000000000e+00,0.000000000000000000e+00,1.927635024484003201e-01
0.000000000000000000e+00,0.000000000000000000e+00,1.927635024484003201e-01
0.000000000000000000e+00,0.000000000000000000e+00,1.927635024484003201e-01
0.000000000000000000e+00,0.000000000000000000e+00,1.927635024484003201e-01
0.000000000000000000e+00,0.000000000000000000e+00,1.927635024484003201e-01
0.000000000000000000e+00,0.000000000000000000e+00,1.927635024484003201e-01
0.000000000000000000e+00,0.000000000000000000e+00,1.927635024484003201e-01
0.000000000000000000e+00,0.000000000000000000e+00,1.927635024484003201e-01
0.000000000000000000e+00,0.000000000000000000e+00,1.927635024484003201e-01
0.000000000000000000e+00,0.000000000000000000e+00,1.927635024484003201e-01
0.000000000000000000e+00,0.000000000000000000e+00,1.927635024484003201e-01
0.000000000000000000e+00,0.000000000000000000e+00,1.927635024484003201e-01
0.000000000000000000e+00,0.000000000000000000e+00,1.927635024484003201e-01
0.000000000000000000e+00,0.000000000000000000e+00,1.927635024484003201e-01
0.000000000000000000e+00,0.000000000000000000e+00,1.927635024484003201e-01
0.000000000000000000e+00,0.000000000000000000e+00,1.927635024484003201e-01
0.000000000000000000e+00,0.000000000000000000e+00,1.927635024484003201e-01
0.000000000000000000e+00,0.000000000000000000e+00,1.927635024484003201e-01
0.000000000000000000e+00,0.000000000000000000e+00,1.927635024484003201e-01
0.000000000000000000e+00,0.000000000000000000e+00,1.927635024484003201e-01
0.000000000000000000e+00,0.000000000000000000e+00,1.927635024484003201e-01
0.000000000000000000e+00,0.000000000000000000e+00,1.927635024484003201e-01
0.000000000000000000e+00,0.000000000000000000e+00,1.927635024484003201e-01
0.000000000000000000e+00,0.000000000000000000e+00,1.927635024484003201e-01
0.000000000000000000e+00,0.000000000000000000e+00,1.927635024484003201e-01
0.000000000000000000e+00,0.000000000000000000e+00,1.927635024484003201e-01
0.000000000000000000e+00,0.000000000000000000e+00,1.927635024484003201e-01
