1.887496469270652510e-01,-3.814483146752475212e-02,0.000000000000000000e+00
4.170929274987983937e-01,-3.538921294553727948e-01,0.000000000000000000e+00
5.267696213167174513e-01,-3.341579233311323116e-01,0.000000000000000000e+00
4.081030345629033662e-01,-2.087740110881430855e-02,0.000000000000000000e+00
1.779617754039912458e-01,1.098617144642790450e-01,0.000000000000000000e+00
-5.217948375492088148e-02,3.170708787688043540e-01,0.000000000000000000e+00
-5.432040488266855725e-03,4.354761155142474194e-01,0.000000000000000000e+00
1.276183749629792308e-01,5.489478007286302530e-01,0.000000000000000000e+00
7.727497452196718797e-02,7.956253772816365144e-01,0.000000000000000000e+00
1.707698610552752516e-01,8.104260318748169878e-01,0.000000000000000000e+00
1.096385890911892036e-01,4.946787338869688688e-01,0.000000000000000000e+00
5.210327430146116656e-02,1.789314358991208054e-01,0.000000000000000000e+00
-1.780379848574509538e-01,-2.827772840540449667e-02,0.000000000000000000e+00
-2.463611711702529683e-01,-1.841062534328424469e-02,0.000000000000000000e+00
-3.110884003086970551e-01,-3.321127993646462440e-02,0.000000000000000000e+00
-2.751288285651170562e-01,-2.827772840540449667e-02,0.000000000000000000e+00
-2.571490426933270013e-01,-4.801193452964499370e-02,0.000000000000000000e+00
-3.470479720522770539e-01,-3.321127993646462440e-02,0.000000000000000000e+00
-3.901994581445730748e-01,-2.334417687434437241e-02,0.000000000000000000e+00
-3.866035009702150638e-01,-8.254679524706588778e-02,0.000000000000000000e+00
-4.369469014112271621e-01,1.323580780956258628e-03,0.000000000000000000e+00
-4.729064731548071054e-01,-5.294548606070512142e-02,0.000000000000000000e+00
-4.872903018522391494e-01,-8.748034677812600857e-02,0.000000000000000000e+00
-5.088660448983871598e-01,-5.294548606070512142e-02,0.000000000000000000e+00
-6.059568886060531234e-01,-1.072145529023665056e-01,0.000000000000000000e+00
-6.383205031752752223e-01,-1.121481044334266264e-01,0.000000000000000000e+00
-6.527043318727072663e-01,-1.318823105576671373e-01,0.000000000000000000e+00
-6.634922033957812992e-01,-1.664171712750880383e-01,0.000000000000000000e+00
-6.347245460009172113e-01,-1.910849289303886422e-01,0.000000000000000000e+00
-5.879771027342631795e-01,-1.861513773993285215e-01,0.000000000000000000e+00
-5.556134881650411916e-01,-1.861513773993285215e-01,0.000000000000000000e+00
-4.836943446778811384e-01,-2.009520319925089116e-01,0.000000000000000000e+00
-3.722196722727830753e-01,-1.614836197440279175e-01,0.000000000000000000e+00
-3.038964859599810331e-01,-1.318823105576671373e-01,0.000000000000000000e+00
-1.528662846369449324e-01,-1.220152074955468957e-01,0.000000000000000000e+00
-1.240986272420809000e-01,-7.761324371600575311e-02,0.000000000000000000e+00
-1.262395483698285949e-02,-3.814483146752475212e-02,0.000000000000000000e+00
6.289114582453517177e-02,-3.321127993646462440e-02,0.000000000000000000e+00
7.367901734760917698e-02,1.323580780956258628e-03,0.000000000000000000e+00
1.240224177886212337e-01,2.599133843625689097e-02,0.000000000000000000e+00
1.384062464860532360e-01,1.612423537413663552e-02,0.000000000000000000e+00
1.348102893116952250e-01,4.572554456049739841e-02,0.000000000000000000e+00
1.168305034399052117e-01,5.065909609155752613e-02,0.000000000000000000e+00
1.420022036604112470e-01,5.559264762261764692e-02,0.000000000000000000e+00
1.455981608347692302e-01,5.559264762261764692e-02,0.000000000000000000e+00
1.420022036604112470e-01,7.532685374685815782e-02,0.000000000000000000e+00
1.168305034399052117e-01,4.079199302943727068e-02,0.000000000000000000e+00
1.132345462655472146e-01,7.532685374685815782e-02,0.000000000000000000e+00
1.455981608347692302e-01,5.559264762261764692e-02,0.000000000000000000e+00
1.420022036604112470e-01,7.039330221579802316e-02,0.000000000000000000e+00
1.276183749629792308e-01,8.026040527791827861e-02,0.000000000000000000e+00
1.527900751834852244e-01,4.572554456049739841e-02,0.000000000000000000e+00
9.885071756811519839e-02,5.065909609155752613e-02,0.000000000000000000e+00
1.491941180091272412e-01,6.545975068473790237e-02,0.000000000000000000e+00
1.060426319168311926e-01,4.079199302943727068e-02,0.000000000000000000e+00
1.168305034399052117e-01,3.092488996731701523e-02,0.000000000000000000e+00
8.806284604504119318e-02,6.052619915367778158e-02,0.000000000000000000e+00
1.168305034399052117e-01,3.092488996731701523e-02,0.000000000000000000e+00
9.885071756811519839e-02,3.092488996731701523e-02,0.000000000000000000e+00
1.384062464860532360e-01,1.119068384307650953e-02,0.000000000000000000e+00
1.024466747424731955e-01,8.519395680897841328e-02,0.000000000000000000e+00
1.384062464860532360e-01,6.052619915367778158e-02,0.000000000000000000e+00
1.060426319168311926e-01,1.295959205885195420e-01,0.000000000000000000e+00
1.671739038809172406e-01,9.999461140215877564e-02,0.000000000000000000e+00
1.959415612757812730e-01,9.012750834003853406e-02,0.000000000000000000e+00
1.959415612757812730e-01,7.532685374685815782e-02,0.000000000000000000e+00
1.707698610552752516e-01,1.323580780956258628e-03,0.000000000000000000e+00
1.384062464860532360e-01,2.599133843625689097e-02,0.000000000000000000e+00
9.885071756811519839e-02,-1.347707381222412043e-02,0.000000000000000000e+00
3.412348842967116713e-02,-1.841062534328424469e-02,0.000000000000000000e+00
4.131540277838716829e-02,-1.841062534328424469e-02,0.000000000000000000e+00
1.973965973223915787e-02,-3.609970750103867580e-03,0.000000000000000000e+00
9.885071756811519839e-02,-2.334417687434437241e-02,0.000000000000000000e+00
1.254774538352315325e-02,1.323580780956258628e-03,0.000000000000000000e+00
1.973965973223915787e-02,-1.841062534328424469e-02,0.000000000000000000e+00
-5.432040488266855725e-03,-8.543522281163994439e-03,0.000000000000000000e+00
5.929518865017718160e-02,-3.609970750103867580e-03,0.000000000000000000e+00
5.210327430146116656e-02,2.599133843625689097e-02,0.000000000000000000e+00
1.973965973223915787e-02,1.323580780956258628e-03,0.000000000000000000e+00
3.412348842967116713e-02,1.323580780956258628e-03,0.000000000000000000e+00
5.210327430146116656e-02,2.105778690519676324e-02,0.000000000000000000e+00
6.648710299889318276e-02,1.049281629332189242e-01,0.000000000000000000e+00
1.599819895322012464e-01,-3.609970750103867580e-03,1.927635024484003201e-01
0.000000000000000000e+00,0.000000000000000000e+00,1.927635024484003201e-01
0.000000000000000000e+00,0.000000000000000000e+00,1.927635024484003201e-01
0.000000000000000000e+00,0.000000000000000000e+00,1.927635024484003201e-01
0.000000000000000000e+00,0.000000000000000000e+00,1.927635024484003201e-01
0.000000000000000000e+00,0.000000000000000000e+00,1.927635024484003201e-01
0.000000000000000000e+00,0.000000000000000000e+00,1.927635024484003201e-01
0.000000000000000000e+00,0.000000000000000000e+00,1.927635024484003201e-01
0.000000000000000000e+00,0.000000000000000000e+00,1.927635024484003201e-01
0.000000000000000000e+00,0.000000000000000000e+00,1.927635024484003201e-01
0.000000000000000000e+00,0.000000000000000000e+00,1.927635024484003201e-01
0.000000000000000000e+00,0.000000000000000000e+00,1.927635024484003201e-01
0.000000000000000000e+00,0.000000000000000000e+00,1.927635024484003201e-01
0.000000000000000000e+00,0.000000000000000000e+00,1.927635024484003201e-01
0.000000000000000000e+00,0.000000000000000000e+00,1.927635024484003201e-01
0.000000000000000000e+00,0.000000000000000000e+00,1.927635024484003201e-01
0.000000000000000000e+00,0.000000000000000000e+00,1.927635024484003201e-01
0.000000000000000000e+00,0.000000000000000000e+00,1.927635024484003201e-01
0.000000000000000000e+00,0.000000000000000000e+00,1.927635024484003201e-01
0.000000000000000000e+00,0.000000000000000000e+00,1.927635024484003201e-01
0.000000000000000000e+00,0.000000000000000000e+00,1.927635024484003201e-01
0.000000000000000000e+00,0.000000000000000000e+00,1.927635024484003201e-01
0.000000000000000000e+00,0.000000000000000000e+00,1.927635024484003201e-01
0.000000000000000000e+00,0.000000000000000000e+00,1.927635024484003201e-01
0.000000000000000000e+00,0.000000000000000000e+00,1.927635024484003201e-01
0.000000000000000000e+00,0.000000000000000000e+00,1.927635024484003201e-01
0.000000000000000000e+00,0.000000000000000000e+00,1.927635024484003201e-01
0.000000000000000000e+00,0.000000000000000000e+00,1.927635024484003201e-01
0.000000000000000000e+00,0.000000000000000000e+00,1.927635024484003201e-01
0.000000000000000000e+00,0.000000000000000000e+00,1.927635024484003201e-01
0.000000000000000000e+00,0.000000000000000000e+00,1.927635024484003201e-01
0.000000000000000000e+00,0.000000000000000000e+00,1.927635024484003201e-01
0.000000000000000000e+00,0.000000000000000000e+00,1.927635024484003201e-01
0.000000000000000000e+00,0.000000000000000000e+00,1.927635024484003201e-01
0.000000000000000000e+00,0.000000000000000000e+00,1.927635024484003201e-01
0.000000000000000000e+00,0.000000000000000000e+00,1.927635024484003201e-01
0.000000000000000000e+00,0.000000000000000000e+00,1.927635024484003201e-01
0.000000000000000000e+00,0.000000000000000000e+00,1.927635024484003201e-01
0.000000000000000000e+00,0.000000000000000000e+00,1.927635024484003201e-01
0.000000000000000000e+00,0.000000000000000000e+00,1.927635024484003201e-01
0.000000000000000000e+00,0.000000000000000000e+00,1.927635024484003201e-01
0.000000000000000000e+00,0.000000000000000000e+00,1.927635024484003201e-01
0.000000000000000000e+00,0.000000000000000000e+00,1.927635024484003201e-01
0.000000000000000000e+00,0.000000000000000000e+00,1.927635024484003201e-01
0.000000000000000000e+00,0.000000000000000000e+00,1.927635024484003201e-01
0.000000000000000000e+00,0.000000000000000000e+00,1.927635024484003201e-01
0.000000000000000000e+00,0.000000000000000000e+00,1.927635024484003201e-01
0.000000000000000000e+00,0.000000000000000000e+00,1.927635024484003201e-01
0.000000000000000000e+00,0.000000000000000000e+00,1.927635024484003201e-01
0.000000000000000000e+00,0.000000000000000000e+00,1.927635024484003201e-01
0.000000000000000000e+00,0.000000000000000000e+00,1.927635024484003201e-01
0.000000000000000000e+00,0.000000000000000000e+00,1.927635024484003201e-01
0.000000000000000000e+00,0.000000000000000000e+00,1.927635024484003201e-01
0.000000000000000000e+00,0.000000000000000000e+00,1.927635024484003201e-01
0.000000000000000000e+00,0.000000000000000000e+00,1.927635024484003201e-01
0.000000000000000000e+00,0.000000000000000000e+00,1.927635024484003201e-01
0.000000000000000000e+00,0.000000000000000000e+00,1.927635024484003201e-01
0.000000000000000000e+00,0.000000000000000000e+00,1.927635024484003201e-01
0.000000000000000000e+00,0.000000000000000000e+00,1.927635024484003201e-01
0.000000000000000000e+00,0.000000000000000000e+00,1.927635024484003201e-01
0.000000000000000000e+00,0.000000000000000000e+00,1.927635024484003201e-01
0.000000000000000000e+00,0.000000000000000000e+00,1.927635024484003201e-01
0.000000000000000000e+00,0.000000000000000000e+00,1.927635024484003201e-01
0.000000000000000000e+00,0.000000000000000000e+00,1.927635024484003201e-01
0.000000000000000000e+00,0.000000000000000000e+00,1.927635024484003201e-01
0.000000000000000000e+00,0.000000000000000000e+00,1.927635024484003201e-01
0.000000000000000000e+00,0.000000000000000000e+00,1.927635024484003201e-01
0.000000000000000000e+00,0.000000000000000000e+00,1.927635024484003201e-01
0.000000000000000000e+00,0.000000000000000000e+00,1.927635024484003201e-01
0.000000000000000000e+00,0.000000000000000000e+00,1.927635024484003201e-01
