2.750526191116572927e-01,5.242800430733296491e-01,0.000000000000000000e+00
2.534768760655092823e-01,6.920207951293738668e-01,0.000000000000000000e+00
2.211132614962872667e-01,6.673530374740732629e-01,0.000000000000000000e+00
2.750526191116572927e-01,3.664063940794055618e-01,0.000000000000000000e+00
4.491135995274516540e-02,5.065909609155752613e-02,0.000000000000000000e+00
-1.636541561600189376e-01,0.000000000000000000e+00,0.000000000000000000e+00
-1.960177707292409255e-01,-2.334417687434437241e-02,0.000000000000000000e+00
-2.175935137753889637e-01,-3.814483146752475212e-02,0.000000000000000000e+00
-2.499571283446109793e-01,-4.801193452964499370e-02,0.000000000000000000e+00
-2.571490426933270013e-01,-5.294548606070512142e-02,0.000000000000000000e+00
-2.967045716112650111e-01,-7.267969218494563233e-02,0.000000000000000000e+00
-3.003005287856230221e-01,-6.281258912282537687e-02,0.000000000000000000e+00
-2.895126572625489891e-01,-6.774614065388549766e-02,0.000000000000000000e+00
-3.074924431343390441e-01,-7.267969218494563233e-02,0.000000000000000000e+00
-3.362601005292030765e-01,-7.267969218494563233e-02,0.000000000000000000e+00
-3.506439292266350649e-01,-8.748034677812600857e-02,0.000000000000000000e+00
-3.398560577035610319e-01,-8.254679524706588778e-02,0.000000000000000000e+00
-3.614318007497090424e-01,-1.022810013713063848e-01,0.000000000000000000e+00
-3.794115866214990973e-01,-1.072145529023665056e-01,0.000000000000000000e+00
-3.901994581445730748e-01,-1.220152074955468957e-01,0.000000000000000000e+00
-3.937954153189310857e-01,-1.220152074955468957e-01,0.000000000000000000e+00
-3.901994581445730748e-01,-1.466829651508475274e-01,0.000000000000000000e+00
-4.009873296676470522e-01,-1.516165166819076482e-01,0.000000000000000000e+00
-4.081792440163630742e-01,-1.713507228061481591e-01,0.000000000000000000e+00
-3.722196722727830753e-01,-1.812178258682684007e-01,0.000000000000000000e+00
-3.722196722727830753e-01,-1.960184804614487630e-01,0.000000000000000000e+00
-3.434520148779190429e-01,-2.058855835235690046e-01,0.000000000000000000e+00
-2.967045716112650111e-01,-2.256197896478095433e-01,0.000000000000000000e+00
-2.319773424728210076e-01,-2.256197896478095433e-01,0.000000000000000000e+00
-1.924218135548829423e-01,-2.108191350546291531e-01,0.000000000000000000e+00
-1.276945844164389110e-01,-2.108191350546291531e-01,0.000000000000000000e+00
-8.094714114978489305e-02,-1.910849289303886422e-01,0.000000000000000000e+00
-4.139161223184688321e-02,-1.664171712750880383e-01,0.000000000000000000e+00
0.000000000000000000e+00,-1.417494136197874066e-01,0.000000000000000000e+00
3.052753125531316308e-02,-1.022810013713063848e-01,0.000000000000000000e+00
4.850731712710316945e-02,-7.267969218494563233e-02,0.000000000000000000e+00
7.008306017325117987e-02,-6.281258912282537687e-02,0.000000000000000000e+00
7.367901734760917698e-02,-4.801193452964499370e-02,0.000000000000000000e+00
5.210327430146116656e-02,-2.827772840540449667e-02,0.000000000000000000e+00
9.165880321939919029e-02,0.000000000000000000e+00,0.000000000000000000e+00
1.060426319168311926e-01,4.572554456049739841e-02,0.000000000000000000e+00
1.096385890911892036e-01,4.079199302943727068e-02,0.000000000000000000e+00
7.367901734760917698e-02,3.092488996731701523e-02,0.000000000000000000e+00
7.367901734760917698e-02,0.000000000000000000e+00,0.000000000000000000e+00
4.131540277838716829e-02,-1.347707381222412043e-02,0.000000000000000000e+00
1.759873860449148036e-03,-3.814483146752475212e-02,0.000000000000000000e+00
-3.419969788313087511e-02,-2.827772840540449667e-02,0.000000000000000000e+00
-3.779565505748887222e-02,-3.814483146752475212e-02,0.000000000000000000e+00
-4.858352658056287743e-02,-5.294548606070512142e-02,0.000000000000000000e+00
-5.217948375492088148e-02,-2.827772840540449667e-02,0.000000000000000000e+00
-6.296735527799489363e-02,-8.543522281163994439e-03,0.000000000000000000e+00
-5.937139810363688264e-02,-2.334417687434437241e-02,0.000000000000000000e+00
-6.656331245235289074e-02,-1.347707381222412043e-02,0.000000000000000000e+00
-7.375522680106889883e-02,-1.347707381222412043e-02,0.000000000000000000e+00
-6.656331245235289074e-02,-2.334417687434437241e-02,0.000000000000000000e+00
-8.094714114978489305e-02,-1.841062534328424469e-02,0.000000000000000000e+00
-5.577544092927888553e-02,-1.347707381222412043e-02,0.000000000000000000e+00
-6.296735527799489363e-02,-2.334417687434437241e-02,0.000000000000000000e+00
-8.813905549850090115e-02,-1.841062534328424469e-02,0.000000000000000000e+00
-9.892692702157489248e-02,-1.347707381222412043e-02,0.000000000000000000e+00
-7.015926962671088785e-02,-1.841062534328424469e-02,0.000000000000000000e+00
-7.735118397542689594e-02,-1.347707381222412043e-02,0.000000000000000000e+00
-9.892692702157489248e-02,-1.841062534328424469e-02,0.000000000000000000e+00
-9.173501267285891214e-02,-2.334417687434437241e-02,0.000000000000000000e+00
-6.656331245235289074e-02,-2.334417687434437241e-02,0.000000000000000000e+00
-9.173501267285891214e-02,5.559264762261764692e-02,0.000000000000000000e+00
-5.217948375492088148e-02,-1.841062534328424469e-02,1.927635024484003201e-01
0.000000000000000000e+00,0.000000000000000000e+00,1.927635024484003201e-01
0.000000000000000000e+00,0.000000000000000000e+00,1.927635024484003201e-01
0.000000000000000000e+00,0.000000000000000000e+00,1.927635024484003201e-01
0.000000000000000000e+00,0.000000000000000000e+00,1.927635024484003201e-01
0.000000000000000000e+00,0.000000000000000000e+00,1.927635024484003201e-01
0.000000000000000000e+00,0.000000000000000000e+00,1.927635024484003201e-01
0.000000000000000000e+00,0.000000000000000000e+00,1.927635024484003201e-01
0.000000000000000000e+00,0.000000000000000000e+00,1.927635024484003201e-01
0.000000000000000000e+00,0.000000000000000000e+00,1.927635024484003201e-01
0.000000000000000000e+00,0.000000000000000000e+00,1.927635024484003201e-01
0.000000000000000000e+00,0.000000000000000000e+00,1.927635024484003201e-01
0.000000000000000000e+00,0.000000000000000000e+00,1.927635024484003201e-01
0.000000000000000000e+00,0.000000000000000000e+00,1.927635024484003201e-01
0.000000000000000000e+00,0.000000000000000000e+00,1.927635024484003201e-01
0.000000000000000000e+00,0.000000000000000000e+00,1.927635024484003201e-01
0.000000000000000000e+00,0.000000000000000000e+00,1.927635024484003201e-01
0.000000000000000000e+00,0.000000000000000000e+00,1.927635024484003201e-01
0.000000000000000000e+00,0.000000000000000000e+00,1.927635024484003201e-01
0.000000000000000000e+00,0.000000000000000000e+00,1.927635024484003201e-01
0.000000000000000000e+00,0.000000000000000000e+00,1.927635024484003201e-01
0.000000000000000000e+00,0.000000000000000000e+00,1.927635024484003201e-01
0.000000000000000000e+00,0.000000000000000000e+00,1.927635024484003201e-01
0.000000000000000000e+00,0.000000000000000000e+00,1.927635024484003201e-01
0.000000000000000000e+00,0.000000000000000000e+00,1.927635024484003201e-01
0.000000000000000000e+00,0.000000000000000000e+00,1.927635024484003201e-01
0.000000000000000000e+00,0.000000000000000000e+00,1.927635024484003201e-01
0.000000000000000000e+00,0.000000000000000000e+00,1.927635024484003201e-01
0.000000000000000000e+00,0.000000000000000000e+00,1.927635024484003201e-01
0.000000000000000000e+00,0.000000000000000000e+00,1.927635024484003201e-01
0.000000000000000000e+00,0.000000000000000000e+00,1.927635024484003201e-01
0.000000000000000000e+00,0.000000000000000000e+00,1.927635024484003201e-01
0.000000000000000000e+00,0.000000000000000000e+00,1.927635024484003201e-01
0.000000000000000000e+00,0.000000000000000000e+00,1.927635024484003201e-01
0.000000000000000000e+00,0.000000000000000000e+00,1.927635024484003201e-01
0.000000000000000000e+00,0.000000000000000000e+00,1.927635024484003201e-01
0.000000000000000000e+00,0.000000000000000000e+00,1.927635024484003201e-01
0.000000000000000000e+00,0.000000000000000000e+00,1.927635024484003201e-01
0.000000000000000000e+00,0.000000000000000000e+00,1.927635024484003201e-01
0.000000000000000000e+00,0.000000000000000000e+00,1.927635024484003201e-01
0.000000000000000000e+00,0.000000000000000000e+00,1.927635024484003201e-01
0.000000000000000000e+00,0.000000000000000000e+00,1.927635024484003201e-01
0.000000000000000000e+00,0.000000000000000000e+00,1.927635024484003201e-01
0.000000000000000000e+00,0.000000000000000000e+00,1.927635024484003201e-01
0.000000000000000000e+00,0.000000000000000000e+00,1.927635024484003201e-01
0.000000000000000000e+00,0.000000000000000000e+00,1.927635024484003201e-01
0.000000000000000000e+00,0.000000000000000000e+00,1.927635024484003201e-01
0.000000000000000000e+00,0.000000000000000000e+00,1.927635024484003201e-01
0.000000000000000000e+00,0.000000000000000000e+00,1.927635024484003201e-01
0.000000000000000000e+00,0.000000000000000000e+00,1.927635024484003201e-01
0.000000000000000000e+00,0.000000000000000000e+00,1.927635024484003201e-01
0.000000000000000000e+00,0.000000000000000000e+00,1.927635024484003201e-01
0.000000000000000000e+00,0.000000000000000000e+00,1.927635024484003201e-01
0.000000000000000000e+00,0.000000000000000000e+00,1.927635024484003201e-01
0.000000000000000000e+00,0.000000000000000000e+00,1.927635024484003201e-01
0.000000000000000000e+00,0.000000000000000000e+00,1.927635024484003201e-01
0.000000000000000000e+00,0.000000000000000000e+00,1.927635024484003201e-01
0.000000000000000000e+00,0.000000000000000000e+00,1.927635024484003201e-01
0.000000000000000000e+00,0.000000000000000000e+00,1.927635024484003201e-01
0.000000000000000000e+00,0.000000000000000000e+00,1.927635024484003201e-01
0.000000000000000000e+00,0.000000000000000000e+00,1.927635024484003201e-01
0.000000000000000000e+00,0.000000000000000000e+00,1.927635024484003201e-01
0.000000000000000000e+00,0.000000000000000000e+00,1.927635024484003201e-01
0.000000000000000000e+00,0.000000000000000000e+00,1.927635024484003201e-01
0.000000000000000000e+00,0.000000000000000000e+00,1.927635024484003201e-01
0.000000000000000000e+00,0.000000000000000000e+00,1.927635024484003201e-01
0.000000000000000000e+00,0.000000000000000000e+00,1.927635024484003201e-01
0.000000000000000000e+00,0.000000000000000000e+00,1.927635024484003201e-01
0.000000000000000000e+00,0.000000000000000000e+00,1.927635024484003201e-01
0.000000000000000000e+00,0.000000000000000000e+00,1.927635024484003201e-01
0.000000000000000000e+00,0.000000000000000000e+00,1.927635024484003201e-01
0.000000000000000000e+00,0.000000000000000000e+00,1.927635024484003201e-01
0.000000000000000000e+00,0.000000000000000000e+00,1.927635024484003201e-01
0.000000000000000000e+00,0.000000000000000000e+00,1.927635024484003201e-01
0.000000000000000000e+00,0.000000000000000000e+00,1.927635024484003201e-01
0.000000000000000000e+00,0.000000000000000000e+00,1.927635024484003201e-01
0.000000000000000000e+00,0.000000000000000000e+00,1.927635024484003201e-01
0.000000000000000000e+00,0.000000000000000000e+00,1.927635024484003201e-01
0.000000000000000000e+00,0.000000000000000000e+00,1.927635024484003201e-01
0.000000000000000000e+00,0.000000000000000000e+00,1.927635024484003201e-01
0.000000000000000000e+00,0.000000000000000000e+00,1.927635024484003201e-01
0.000000000000000000e+00,0.000000000000000000e+00,1.927635024484003201e-01
0.000000000000000000e+00,0.000000000000000000e+00,1.927635024484003201e-01
0.000000000000000000e+00,0.000000000000000000e+00,1.927635024484003201e-01
0.000000000000000000e+00,0.000000000000000000e+00,1.927635024484003201e-01
0.000000000000000000e+00,0.000000000000000000e+00,1.927635024484003201e-01
