3.052753125531316308e-02,2.599133843625689097e-02,0.000000000000000000e+00
1.743658182296332626e-01,-2.897559595515911690e-01,0.000000000000000000e+00
3.541636769475333124e-01,-6.055032575394392325e-01,0.000000000000000000e+00
2.750526191116572927e-01,-2.922227353171212294e-01,0.000000000000000000e+00
3.002243193321632586e-01,2.105778690519676324e-02,0.000000000000000000e+00
7.008306017325117987e-02,1.591972297748802945e-01,0.000000000000000000e+00
-1.025228841959329035e-01,3.368050848930448371e-01,0.000000000000000000e+00
4.131540277838716829e-02,5.193464915422695283e-01,0.000000000000000000e+00
1.276183749629792308e-01,7.413563104399750747e-01,0.000000000000000000e+00
-9.027997662624857172e-03,9.140306140270796353e-01,0.000000000000000000e+00
1.614370255788115729e-02,7.808247226884561520e-01,0.000000000000000000e+00
4.491135995274516540e-02,4.650774247006080886e-01,0.000000000000000000e+00
-1.169067128933649058e-01,1.493301267127600529e-01,0.000000000000000000e+00
-1.384824559395129162e-01,2.105778690519676324e-02,0.000000000000000000e+00
-1.672501133343769208e-01,0.000000000000000000e+00,0.000000000000000000e+00
-1.600581989856609266e-01,0.000000000000000000e+00,0.000000000000000000e+00
-1.924218135548829423e-01,-1.841062534328424469e-02,0.000000000000000000e+00
-1.852298992061669480e-01,-8.543522281163994439e-03,0.000000000000000000e+00
-2.139975566010309804e-01,-1.841062534328424469e-02,0.000000000000000000e+00
-2.068056422523149585e-01,-3.814483146752475212e-02,0.000000000000000000e+00
-2.175935137753889637e-01,-2.334417687434437241e-02,0.000000000000000000e+00
-2.211894709497469746e-01,-3.321127993646462440e-02,0.000000000000000000e+00
-2.427652139958950128e-01,-4.307838299858487291e-02,0.000000000000000000e+00
-2.427652139958950128e-01,-4.801193452964499370e-02,0.000000000000000000e+00
-2.463611711702529683e-01,-3.814483146752475212e-02,0.000000000000000000e+00
-2.751288285651170562e-01,-6.281258912282537687e-02,0.000000000000000000e+00
-2.859167000881909781e-01,-4.801193452964499370e-02,0.000000000000000000e+00
-2.967045716112650111e-01,-6.774614065388549766e-02,0.000000000000000000e+00
-2.931086144369070001e-01,-9.241389830918614323e-02,0.000000000000000000e+00
-3.254722290061290435e-01,-8.254679524706588778e-02,0.000000000000000000e+00
-3.290681861804870545e-01,-1.072145529023665056e-01,0.000000000000000000e+00
-3.290681861804870545e-01,-1.318823105576671373e-01,0.000000000000000000e+00
-3.326641433548450655e-01,-1.466829651508475274e-01,0.000000000000000000e+00
-3.578358435753510314e-01,-1.614836197440279175e-01,0.000000000000000000e+00
-3.398560577035610319e-01,-1.960184804614487630e-01,0.000000000000000000e+00
-3.003005287856230221e-01,-2.058855835235690046e-01,0.000000000000000000e+00
-2.895126572625489891e-01,-1.960184804614487630e-01,0.000000000000000000e+00
-2.571490426933270013e-01,-2.453539957720500542e-01,0.000000000000000000e+00
-2.032096850779569475e-01,-2.305533411788696641e-01,0.000000000000000000e+00
-1.456743702882289104e-01,-2.058855835235690046e-01,0.000000000000000000e+00
-9.533096984721690925e-02,-1.861513773993285215e-01,0.000000000000000000e+00
-3.779565505748887222e-02,-1.762842743372082799e-01,0.000000000000000000e+00
1.759873860449148036e-03,-1.417494136197874066e-01,0.000000000000000000e+00
5.569923147581917061e-02,-1.220152074955468957e-01,0.000000000000000000e+00
8.087093169632518508e-02,-8.254679524706588778e-02,0.000000000000000000e+00
9.525476039375720128e-02,-5.294548606070512142e-02,0.000000000000000000e+00
1.096385890911892036e-01,-5.294548606070512142e-02,0.000000000000000000e+00
1.348102893116952250e-01,-3.609970750103867580e-03,0.000000000000000000e+00
1.096385890911892036e-01,0.000000000000000000e+00,0.000000000000000000e+00
1.096385890911892036e-01,-8.543522281163994439e-03,0.000000000000000000e+00
9.885071756811519839e-02,0.000000000000000000e+00,0.000000000000000000e+00
1.168305034399052117e-01,1.119068384307650953e-02,0.000000000000000000e+00
9.885071756811519839e-02,0.000000000000000000e+00,0.000000000000000000e+00
5.929518865017718160e-02,-8.543522281163994439e-03,0.000000000000000000e+00
9.885071756811519839e-02,1.323580780956258628e-03,0.000000000000000000e+00
9.525476039375720128e-02,-8.543522281163994439e-03,0.000000000000000000e+00
9.885071756811519839e-02,-3.609970750103867580e-03,0.000000000000000000e+00
9.525476039375720128e-02,2.105778690519676324e-02,0.000000000000000000e+00
1.060426319168311926e-01,-3.609970750103867580e-03,0.000000000000000000e+00
9.885071756811519839e-02,-1.841062534328424469e-02,0.000000000000000000e+00
1.024466747424731955e-01,1.323580780956258628e-03,0.000000000000000000e+00
1.096385890911892036e-01,-2.334417687434437241e-02,0.000000000000000000e+00
1.060426319168311926e-01,-3.609970750103867580e-03,0.000000000000000000e+00
9.165880321939919029e-02,-3.609970750103867580e-03,0.000000000000000000e+00
8.446688887068319607e-02,-1.841062534328424469e-02,0.000000000000000000e+00
8.087093169632518508e-02,-2.827772840540449667e-02,0.000000000000000000e+00
1.060426319168311926e-01,1.323580780956258628e-03,0.000000000000000000e+00
7.727497452196718797e-02,-1.841062534328424469e-02,0.000000000000000000e+00
7.727497452196718797e-02,-2.827772840540449667e-02,0.000000000000000000e+00
7.008306017325117987e-02,0.000000000000000000e+00,0.000000000000000000e+00
1.024466747424731955e-01,-1.347707381222412043e-02,0.000000000000000000e+00
8.087093169632518508e-02,-8.543522281163994439e-03,0.000000000000000000e+00
8.446688887068319607e-02,0.000000000000000000e+00,0.000000000000000000e+00
6.289114582453517177e-02,-1.347707381222412043e-02,0.000000000000000000e+00
7.727497452196718797e-02,-8.543522281163994439e-03,0.000000000000000000e+00
7.008306017325117987e-02,1.119068384307650953e-02,0.000000000000000000e+00
7.008306017325117987e-02,-2.827772840540449667e-02,0.000000000000000000e+00
8.806284604504119318e-02,-2.334417687434437241e-02,0.000000000000000000e+00
9.525476039375720128e-02,1.119068384307650953e-02,0.000000000000000000e+00
7.727497452196718797e-02,-2.827772840540449667e-02,0.000000000000000000e+00
8.087093169632518508e-02,-3.609970750103867580e-03,0.000000000000000000e+00
1.276183749629792308e-01,3.585844149837714295e-02,0.000000000000000000e+00
1.491941180091272412e-01,3.092488996731701523e-02,0.000000000000000000e+00
1.671739038809172406e-01,5.065909609155752613e-02,0.000000000000000000e+00
1.815577325783492568e-01,3.585844149837714295e-02,0.000000000000000000e+00
1.527900751834852244e-01,1.119068384307650953e-02,0.000000000000000000e+00
1.491941180091272412e-01,-1.841062534328424469e-02,0.000000000000000000e+00
1.420022036604112470e-01,-5.294548606070512142e-02,0.000000000000000000e+00
1.024466747424731955e-01,-4.801193452964499370e-02,0.000000000000000000e+00
1.240224177886212337e-01,-4.801193452964499370e-02,0.000000000000000000e+00
1.132345462655472146e-01,-5.294548606070512142e-02,0.000000000000000000e+00
9.165880321939919029e-02,-6.281258912282537687e-02,0.000000000000000000e+00
6.289114582453517177e-02,-5.294548606070512142e-02,0.000000000000000000e+00
9.525476039375720128e-02,-2.334417687434437241e-02,0.000000000000000000e+00
1.348102893116952250e-01,-5.787903759176525609e-02,0.000000000000000000e+00
8.087093169632518508e-02,-2.827772840540449667e-02,0.000000000000000000e+00
8.087093169632518508e-02,-4.801193452964499370e-02,0.000000000000000000e+00
9.885071756811519839e-02,-1.347707381222412043e-02,0.000000000000000000e+00
1.024466747424731955e-01,-4.801193452964499370e-02,0.000000000000000000e+00
1.168305034399052117e-01,-1.347707381222412043e-02,0.000000000000000000e+00
8.087093169632518508e-02,-4.801193452964499370e-02,0.000000000000000000e+00
1.348102893116952250e-01,-3.321127993646462440e-02,0.000000000000000000e+00
1.132345462655472146e-01,-8.543522281163994439e-03,0.000000000000000000e+00
9.165880321939919029e-02,-5.294548606070512142e-02,0.000000000000000000e+00
1.168305034399052117e-01,4.079199302943727068e-02,1.927635024484003201e-01
0.000000000000000000e+00,0.000000000000000000e+00,1.927635024484003201e-01
0.000000000000000000e+00,0.000000000000000000e+00,1.927635024484003201e-01
0.000000000000000000e+00,0.000000000000000000e+00,1.927635024484003201e-01
0.000000000000000000e+00,0.000000000000000000e+00,1.927635024484003201e-01
0.000000000000000000e+00,0.000000000000000000e+00,1.927635024484003201e-01
0.000000000000000000e+00,0.000000000000000000e+00,1.927635024484003201e-01
0.000000000000000000e+00,0.000000000000000000e+00,1.927635024484003201e-01
0.000000000000000000e+00,0.000000000000000000e+00,1.927635024484003201e-01
0.000000000000000000e+00,0.000000000000000000e+00,1.927635024484003201e-01
0.000000000000000000e+00,0.000000000000000000e+00,1.927635024484003201e-01
0.000000000000000000e+00,0.000000000000000000e+00,1.927635024484003201e-01
0.000000000000000000e+00,0.000000000000000000e+00,1.927635024484003201e-01
0.000000000000000000e+00,0.000000000000000000e+00,1.927635024484003201e-01
0.000000000000000000e+00,0.000000000000000000e+00,1.927635024484003201e-01
0.000000000000000000e+00,0.000000000000000000e+00,1.927635024484003201e-01
0.000000000000000000e+00,0.000000000000000000e+00,1.927635024484003201e-01
0.000000000000000000e+00,0.000000000000000000e+00,1.927635024484003201e-01
0.000000000000000000e+00,0.000000000000000000e+00,1.927635024484003201e-01
0.000000000000000000e+00,0.000000000000000000e+00,1.927635024484003201e-01
0.000000000000000000e+00,0.000000000000000000e+00,1.927635024484003201e-01
0.000000000000000000e+00,0.000000000000000000e+00,1.927635024484003201e-01
0.000000000000000000e+00,0.000000000000000000e+00,1.927635024484003201e-01
0.000000000000000000e+00,0.000000000000000000e+00,1.927635024484003201e-01
0.000000000000000000e+00,0.000000000000000000e+00,1.927635024484003201e-01
0.000000000000000000e+00,0.000000000000000000e+00,1.927635024484003201e-01
0.000000000000000000e+00,0.000000000000000000e+00,1.927635024484003201e-01
0.000000000000000000e+00,0.000000000000000000e+00,1.927635024484003201e-01
0.000000000000000000e+00,0.000000000000000000e+00,1.927635024484003201e-01
0.000000000000000000e+00,0.000000000000000000e+00,1.927635024484003201e-01
0.000000000000000000e+00,0.000000000000000000e+00,1.927635024484003201e-01
0.000000000000000000e+00,0.000000000000000000e+00,1.927635024484003201e-01
0.000000000000000000e+00,0.000000000000000000e+00,1.927635024484003201e-01
0.000000000000000000e+00,0.000000000000000000e+00,1.927635024484003201e-01
0.000000000000000000e+00,0.000000000000000000e+00,1.927635024484003201e-01
0.000000000000000000e+00,0.000000000000000000e+00,1.927635024484003201e-01
0.000000000000000000e+00,0.000000000000000000e+00,1.927635024484003201e-01
0.000000000000000000e+00,0.000000000000000000e+00,1.927635024484003201e-01
0.000000000000000000e+00,0.000000000000000000e+00,1.927635024484003201e-01
0.000000000000000000e+00,0.000000000000000000e+00,1.927635024484003201e-01
0.000000000000000000e+00,0.000000000000000000e+00,1.927635024484003201e-01
0.000000000000000000e+00,0.000000000000000000e+00,1.927635024484003201e-01
0.000000000000000000e+00,0.000000000000000000e+00,1.927635024484003201e-01
0.000000000000000000e+00,0.000000000000000000e+00,1.927635024484003201e-01
0.000000000000000000e+00,0.000000000000000000e+00,1.927635024484003201e-01
0.000000000000000000e+00,0.000000000000000000e+00,1.927635024484003201e-01
0.000000000000000000e+00,0.000000000000000000e+00,1.927635024484003201e-01
0.000000000000000000e+00,0.000000000000000000e+00,1.927635024484003201e-01
