1.132345462655472146e-01,-2.827772840540449667e-02,0.000000000000000000e+00
3.253960195526693355e-01,-3.242908202690120700e-01,0.000000000000000000e+00
5.537393001244024227e-01,-5.166993299803569473e-01,0.000000000000000000e+00
4.224868632603354102e-01,-2.034188077580389720e-01,0.000000000000000000e+00
3.505677197731753014e-01,1.098617144642790450e-01,0.000000000000000000e+00
1.204264606142632227e-01,6.545975068473790237e-02,0.000000000000000000e+00
-9.173501267285891214e-02,2.578682603960828490e-01,0.000000000000000000e+00
8.087093169632518508e-02,3.713399456104657381e-01,0.000000000000000000e+00
1.959415612757812730e-01,5.588149037907504946e-01,0.000000000000000000e+00
1.024466747424731955e-01,7.660240680952757897e-01,0.000000000000000000e+00
1.455981608347692302e-01,7.117550012536143500e-01,0.000000000000000000e+00
1.491941180091272412e-01,3.960077032657663421e-01,0.000000000000000000e+00
4.850731712710316945e-02,8.026040527791827861e-02,0.000000000000000000e+00
-6.656331245235289074e-02,-8.543522281163994439e-03,0.000000000000000000e+00
-5.937139810363688264e-02,2.599133843625689097e-02,0.000000000000000000e+00
-1.061188413702909145e-01,-8.543522281163994439e-03,0.000000000000000000e+00
-1.097147985446489116e-01,-2.827772840540449667e-02,0.000000000000000000e+00
-1.384824559395129162e-01,-1.841062534328424469e-02,0.000000000000000000e+00
-1.240986272420809000e-01,-2.334417687434437241e-02,0.000000000000000000e+00
-1.456743702882289104e-01,-1.841062534328424469e-02,0.000000000000000000e+00
-1.528662846369449324e-01,-1.347707381222412043e-02,0.000000000000000000e+00
-1.600581989856609266e-01,-3.814483146752475212e-02,0.000000000000000000e+00
-1.636541561600189376e-01,-3.814483146752475212e-02,0.000000000000000000e+00
-1.816339420318089370e-01,-2.827772840540449667e-02,0.000000000000000000e+00
-2.139975566010309804e-01,-4.801193452964499370e-02,0.000000000000000000e+00
-2.283813852984629411e-01,-4.801193452964499370e-02,0.000000000000000000e+00
-2.032096850779569475e-01,-4.307838299858487291e-02,0.000000000000000000e+00
-2.499571283446109793e-01,-8.254679524706588778e-02,0.000000000000000000e+00
-2.715328713907590452e-01,-8.748034677812600857e-02,0.000000000000000000e+00
-2.931086144369070001e-01,-1.170816559644867610e-01,0.000000000000000000e+00
-2.787247857394750117e-01,-9.241389830918614323e-02,0.000000000000000000e+00
-2.643409570420430232e-01,-1.417494136197874066e-01,0.000000000000000000e+00
-2.571490426933270013e-01,-1.269487590266070165e-01,0.000000000000000000e+00
-2.535530855189689903e-01,-1.910849289303886422e-01,0.000000000000000000e+00
-2.355732996471789908e-01,-1.762842743372082799e-01,0.000000000000000000e+00
-1.708460705087349318e-01,-1.812178258682684007e-01,0.000000000000000000e+00
-1.456743702882289104e-01,-1.861513773993285215e-01,0.000000000000000000e+00
-8.813905549850090115e-02,-1.762842743372082799e-01,0.000000000000000000e+00
-3.779565505748887222e-02,-1.368158620887272581e-01,0.000000000000000000e+00
-5.432040488266855725e-03,-1.368158620887272581e-01,0.000000000000000000e+00
5.210327430146116656e-02,-1.121481044334266264e-01,0.000000000000000000e+00
5.569923147581917061e-02,-9.734744984024626402e-02,0.000000000000000000e+00
1.024466747424731955e-01,-5.787903759176525609e-02,0.000000000000000000e+00
1.779617754039912458e-01,-1.841062534328424469e-02,0.000000000000000000e+00
1.276183749629792308e-01,1.323580780956258628e-03,0.000000000000000000e+00
1.384062464860532360e-01,0.000000000000000000e+00,0.000000000000000000e+00
1.420022036604112470e-01,2.599133843625689097e-02,0.000000000000000000e+00
1.312143321373372140e-01,5.559264762261764692e-02,0.000000000000000000e+00
1.420022036604112470e-01,6.545975068473790237e-02,0.000000000000000000e+00
1.276183749629792308e-01,8.519395680897841328e-02,0.000000000000000000e+00
1.204264606142632227e-01,6.545975068473790237e-02,0.000000000000000000e+00
1.132345462655472146e-01,6.545975068473790237e-02,0.000000000000000000e+00
8.446688887068319607e-02,6.545975068473790237e-02,0.000000000000000000e+00
1.168305034399052117e-01,9.999461140215877564e-02,0.000000000000000000e+00
1.276183749629792308e-01,1.147952659953391658e-01,0.000000000000000000e+00
1.240224177886212337e-01,1.246623690574594212e-01,0.000000000000000000e+00
6.289114582453517177e-02,1.147952659953391658e-01,0.000000000000000000e+00
1.168305034399052117e-01,7.532685374685815782e-02,0.000000000000000000e+00
1.168305034399052117e-01,1.197288175263992865e-01,0.000000000000000000e+00
9.165880321939919029e-02,9.012750834003853406e-02,0.000000000000000000e+00
7.008306017325117987e-02,8.519395680897841328e-02,0.000000000000000000e+00
1.671739038809172406e-01,1.443965751816999321e-01,0.000000000000000000e+00
1.096385890911892036e-01,8.519395680897841328e-02,0.000000000000000000e+00
1.024466747424731955e-01,1.098617144642790450e-01,0.000000000000000000e+00
3.412348842967116713e-02,5.065909609155752613e-02,0.000000000000000000e+00
7.008306017325117987e-02,1.394630236506397836e-01,0.000000000000000000e+00
6.648710299889318276e-02,7.039330221579802316e-02,0.000000000000000000e+00
4.491135995274516540e-02,8.519395680897841328e-02,0.000000000000000000e+00
5.569923147581917061e-02,1.197288175263992865e-01,0.000000000000000000e+00
2.333561690659716192e-02,9.506105987109865485e-02,0.000000000000000000e+00
7.008306017325117987e-02,7.532685374685815782e-02,0.000000000000000000e+00
2.333561690659716192e-02,1.147952659953391658e-01,0.000000000000000000e+00
4.491135995274516540e-02,1.345294721195796628e-01,0.000000000000000000e+00
6.648710299889318276e-02,1.542636782438201737e-01,0.000000000000000000e+00
7.727497452196718797e-02,1.147952659953391658e-01,0.000000000000000000e+00
1.348102893116952250e-01,1.641307813059404153e-01,0.000000000000000000e+00
1.168305034399052117e-01,1.197288175263992865e-01,0.000000000000000000e+00
1.060426319168311926e-01,6.545975068473790237e-02,0.000000000000000000e+00
0.000000000000000000e+00,5.559264762261764692e-02,0.000000000000000000e+00
-9.027997662624857172e-03,3.585844149837714295e-02,0.000000000000000000e+00
1.614370255788115729e-02,2.599133843625689097e-02,0.000000000000000000e+00
2.333561690659716192e-02,5.065909609155752613e-02,0.000000000000000000e+00
-2.700778353441486701e-02,5.559264762261764692e-02,0.000000000000000000e+00
-3.060374070877287106e-02,1.119068384307650953e-02,0.000000000000000000e+00
-3.060374070877287106e-02,2.105778690519676324e-02,0.000000000000000000e+00
-1.981586918569886238e-02,4.572554456049739841e-02,0.000000000000000000e+00
-6.656331245235289074e-02,4.572554456049739841e-02,0.000000000000000000e+00
-1.981586918569886238e-02,5.065909609155752613e-02,0.000000000000000000e+00
-3.419969788313087511e-02,5.559264762261764692e-02,0.000000000000000000e+00
-8.094714114978489305e-02,6.545975068473790237e-02,0.000000000000000000e+00
-5.217948375492088148e-02,3.092488996731701523e-02,0.000000000000000000e+00
-9.892692702157489248e-02,6.052619915367778158e-02,0.000000000000000000e+00
1.973965973223915787e-02,4.572554456049739841e-02,0.000000000000000000e+00
-9.892692702157489248e-02,6.545975068473790237e-02,0.000000000000000000e+00
-7.375522680106889883e-02,5.559264762261764692e-02,0.000000000000000000e+00
-7.375522680106889883e-02,6.545975068473790237e-02,0.000000000000000000e+00
-4.858352658056287743e-02,1.246623690574594212e-01,0.000000000000000000e+00
-3.779565505748887222e-02,1.147952659953391658e-01,1.927635024484003201e-01
0.000000000000000000e+00,0.000000000000000000e+00,1.927635024484003201e-01
0.000000000000000000e+00,0.000000000000000000e+00,1.927635024484003201e-01
0.000000000000000000e+00,0.000000000000000000e+00,1.927635024484003201e-01
0.000000000000000000e+00,0.000000000000000000e+00,1.927635024484003201e-01
0.000000000000000000e+00,0.000000000000000000e+00,1.927635024484003201e-01
0.000000000000000000e+00,0.000000000000000000e+00,1.927635024484003201e-01
0.000000000000000000e+00,0.000000000000000000e+00,1.927635024484003201e-01
0.000000000000000000e+00,0.000000000000000000e+00,1.927635024484003201e-01
0.000000000000000000e+00,0.000000000000000000e+00,1.927635024484003201e-01
0.000000000000000000e+00,0.000000000000000000e+00,1.927635024484003201e-01
0.000000000000000000e+00,0.000000000000000000e+00,1.927635024484003201e-01
0.000000000000000000e+00,0.000000000000000000e+00,1.927635024484003201e-01
0.000000000000000000e+00,0.000000000000000000e+00,1.927635024484003201e-01
0.000000000000000000e+00,0.000000000000000000e+00,1.927635024484003201e-01
0.000000000000000000e+00,0.000000000000000000e+00,1.927635024484003201e-01
0.000000000000000000e+00,0.000000000000000000e+00,1.927635024484003201e-01
0.000000000000000000e+00,0.000000000000000000e+00,1.927635024484003201e-01
0.000000000000000000e+00,0.000000000000000000e+00,1.927635024484003201e-01
0.000000000000000000e+00,0.000000000000000000e+00,1.927635024484003201e-01
0.000000000000000000e+00,0.000000000000000000e+00,1.927635024484003201e-01
0.000000000000000000e+00,0.000000000000000000e+00,1.927635024484003201e-01
0.000000000000000000e+00,0.000000000000000000e+00,1.927635024484003201e-01
0.000000000000000000e+00,0.000000000000000000e+00,1.927635024484003201e-01
0.000000000000000000e+00,0.000000000000000000e+00,1.927635024484003201e-01
0.000000000000000000e+00,0.000000000000000000e+00,1.927635024484003201e-01
0.000000000000000000e+00,0.000000000000000000e+00,1.927635024484003201e-01
0.000000000000000000e+00,0.000000000000000000e+00,1.927635024484003201e-01
0.000000000000000000e+00,0.000000000000000000e+00,1.927635024484003201e-01
0.000000000000000000e+00,0.000000000000000000e+00,1.927635024484003201e-01
0.000000000000000000e+00,0.000000000000000000e+00,1.927635024484003201e-01
0.000000000000000000e+00,0.000000000000000000e+00,1.927635024484003201e-01
0.000000000000000000e+00,0.000000000000000000e+00,1.927635024484003201e-01
0.000000000000000000e+00,0.000000000000000000e+00,1.927635024484003201e-01
0.000000000000000000e+00,0.000000000000000000e+00,1.927635024484003201e-01
0.000000000000000000e+00,0.000000000000000000e+00,1.927635024484003201e-01
0.000000000000000000e+00,0.000000000000000000e+00,1.927635024484003201e-01
0.000000000000000000e+00,0.000000000000000000e+00,1.927635024484003201e-01
0.000000000000000000e+00,0.000000000000000000e+00,1.927635024484003201e-01
0.000000000000000000e+00,0.000000000000000000e+00,1.927635024484003201e-01
0.000000000000000000e+00,0.000000000000000000e+00,1.927635024484003201e-01
0.000000000000000000e+00,0.000000000000000000e+00,1.927635024484003201e-01
0.000000000000000000e+00,0.000000000000000000e+00,1.927635024484003201e-01
0.000000000000000000e+00,0.000000000000000000e+00,1.927635024484003201e-01
0.000000000000000000e+00,0.000000000000000000e+00,1.927635024484003201e-01
0.000000000000000000e+00,0.000000000000000000e+00,1.927635024484003201e-01
0.000000000000000000e+00,0.000000000000000000e+00,1.927635024484003201e-01
0.000000000000000000e+00,0.000000000000000000e+00,1.927635024484003201e-01
0.000000000000000000e+00,0.000000000000000000e+00,1.927635024484003201e-01
0.000000000000000000e+00,0.000000000000000000e+00,1.927635024484003201e-01
0.000000000000000000e+00,0.000000000000000000e+00,1.927635024484003201e-01
0.000000000000000000e+00,0.000000000000000000e+00,1.927635024484003201e-01
0.000000000000000000e+00,0.000000000000000000e+00,1.927635024484003201e-01
0.000000000000000000e+00,0.000000000000000000e+00,1.927635024484003201e-01
0.000000000000000000e+00,0.000000000000000000e+00,1.927635024484003201e-01
