3.649515484706073454e-01,-2.946895110826513453e-01,0.000000000000000000e+00
5.771130217577293831e-01,-5.117657784492968265e-01,0.000000000000000000e+00
4.728302637013473975e-01,-1.984852562269788789e-01,0.000000000000000000e+00
4.620423921782733645e-01,1.147952659953391658e-01,0.000000000000000000e+00
2.319011330193612441e-01,7.532685374685815782e-02,0.000000000000000000e+00
1.614370255788115729e-02,2.726689149892632114e-01,0.000000000000000000e+00
1.959415612757812730e-01,3.812070486725859797e-01,0.000000000000000000e+00
2.570728332398672933e-01,5.736155583839309680e-01,0.000000000000000000e+00
1.671739038809172406e-01,7.660240680952757897e-01,0.000000000000000000e+00
2.067294327988552782e-01,6.920207951293738668e-01,0.000000000000000000e+00
1.491941180091272412e-01,3.762734971415258589e-01,0.000000000000000000e+00
7.727497452196718797e-02,6.052619915367778158e-02,0.000000000000000000e+00
-4.858352658056287743e-02,-3.321127993646462440e-02,0.000000000000000000e+00
-6.656331245235289074e-02,-2.334417687434437241e-02,0.000000000000000000e+00
-8.094714114978489305e-02,-4.307838299858487291e-02,0.000000000000000000e+00
-8.454309832414290404e-02,-5.787903759176525609e-02,0.000000000000000000e+00
-1.312905415907969220e-01,-4.801193452964499370e-02,0.000000000000000000e+00
-1.205026700677229168e-01,-4.801193452964499370e-02,0.000000000000000000e+00
-1.420784131138708994e-01,-7.267969218494563233e-02,0.000000000000000000e+00
-1.456743702882289104e-01,-5.787903759176525609e-02,0.000000000000000000e+00
-1.636541561600189376e-01,-7.761324371600575311e-02,0.000000000000000000e+00
-1.888258563805249590e-01,-8.748034677812600857e-02,0.000000000000000000e+00
-1.924218135548829423e-01,-6.774614065388549766e-02,0.000000000000000000e+00
-1.816339420318089370e-01,-8.748034677812600857e-02,0.000000000000000000e+00
-2.068056422523149585e-01,-1.022810013713063848e-01,0.000000000000000000e+00
-2.319773424728210076e-01,-1.072145529023665056e-01,0.000000000000000000e+00
-2.607449998676850123e-01,-1.022810013713063848e-01,0.000000000000000000e+00
-2.535530855189689903e-01,-1.368158620887272581e-01,0.000000000000000000e+00
-2.859167000881909781e-01,-1.269487590266070165e-01,0.000000000000000000e+00
-3.182803146574130770e-01,-1.565500682129677967e-01,0.000000000000000000e+00
-3.038964859599810331e-01,-1.664171712750880383e-01,0.000000000000000000e+00
-3.182803146574130770e-01,-1.960184804614487630e-01,0.000000000000000000e+00
-3.290681861804870545e-01,-2.108191350546291531e-01,0.000000000000000000e+00
-3.398560577035610319e-01,-2.404204442409899056e-01,0.000000000000000000e+00
-3.110884003086970551e-01,-2.404204442409899056e-01,0.000000000000000000e+00
-2.643409570420430232e-01,-2.601546503652304443e-01,0.000000000000000000e+00
-2.247854281241049301e-01,-2.601546503652304443e-01,0.000000000000000000e+00
-1.924218135548829423e-01,-2.502875473031102027e-01,0.000000000000000000e+00
-1.312905415907969220e-01,-2.453539957720500542e-01,0.000000000000000000e+00
-6.656331245235289074e-02,-2.404204442409899056e-01,0.000000000000000000e+00
-1.981586918569886238e-02,-1.960184804614487630e-01,0.000000000000000000e+00
3.771944560402916424e-02,-1.762842743372082799e-01,0.000000000000000000e+00
4.850731712710316945e-02,-1.614836197440279175e-01,0.000000000000000000e+00
8.806284604504119318e-02,-1.220152074955468957e-01,0.000000000000000000e+00
1.132345462655472146e-01,-9.241389830918614323e-02,0.000000000000000000e+00
1.420022036604112470e-01,-6.774614065388549766e-02,0.000000000000000000e+00
1.240224177886212337e-01,-4.801193452964499370e-02,0.000000000000000000e+00
1.420022036604112470e-01,-4.307838299858487291e-02,0.000000000000000000e+00
1.096385890911892036e-01,-4.801193452964499370e-02,0.000000000000000000e+00
1.276183749629792308e-01,-1.347707381222412043e-02,0.000000000000000000e+00
9.165880321939919029e-02,-3.814483146752475212e-02,0.000000000000000000e+00
1.096385890911892036e-01,-2.827772840540449667e-02,0.000000000000000000e+00
8.446688887068319607e-02,-1.841062534328424469e-02,0.000000000000000000e+00
8.087093169632518508e-02,-2.827772840540449667e-02,0.000000000000000000e+00
9.165880321939919029e-02,-2.334417687434437241e-02,0.000000000000000000e+00
1.132345462655472146e-01,-8.543522281163994439e-03,0.000000000000000000e+00
7.727497452196718797e-02,-1.841062534328424469e-02,0.000000000000000000e+00
7.727497452196718797e-02,-3.321127993646462440e-02,0.000000000000000000e+00
7.367901734760917698e-02,1.323580780956258628e-03,0.000000000000000000e+00
7.367901734760917698e-02,-2.334417687434437241e-02,0.000000000000000000e+00
8.446688887068319607e-02,-1.841062534328424469e-02,0.000000000000000000e+00
5.210327430146116656e-02,-2.334417687434437241e-02,0.000000000000000000e+00
7.008306017325117987e-02,-1.841062534328424469e-02,0.000000000000000000e+00
5.210327430146116656e-02,-2.334417687434437241e-02,0.000000000000000000e+00
5.929518865017718160e-02,-8.543522281163994439e-03,0.000000000000000000e+00
3.412348842967116713e-02,-2.827772840540449667e-02,0.000000000000000000e+00
5.210327430146116656e-02,-3.321127993646462440e-02,0.000000000000000000e+00
3.412348842967116713e-02,-2.827772840540449667e-02,0.000000000000000000e+00
3.052753125531316308e-02,-2.827772840540449667e-02,0.000000000000000000e+00
-1.836083313908854061e-03,-3.321127993646462440e-02,0.000000000000000000e+00
8.951788209165152665e-03,-2.827772840540449667e-02,0.000000000000000000e+00
1.254774538352315325e-02,-3.321127993646462440e-02,0.000000000000000000e+00
0.000000000000000000e+00,-3.814483146752475212e-02,0.000000000000000000e+00
-9.027997662624857172e-03,-2.334417687434437241e-02,0.000000000000000000e+00
-1.836083313908854061e-03,-3.321127993646462440e-02,0.000000000000000000e+00
-1.836083313908854061e-03,-2.827772840540449667e-02,0.000000000000000000e+00
-1.836083313908854061e-03,-3.321127993646462440e-02,0.000000000000000000e+00
-1.981586918569886238e-02,-3.321127993646462440e-02,0.000000000000000000e+00
1.759873860449148036e-03,-2.827772840540449667e-02,0.000000000000000000e+00
1.973965973223915787e-02,0.000000000000000000e+00,0.000000000000000000e+00
4.491135995274516540e-02,1.612423537413663552e-02,0.000000000000000000e+00
6.289114582453517177e-02,4.572554456049739841e-02,0.000000000000000000e+00
5.210327430146116656e-02,3.092488996731701523e-02,0.000000000000000000e+00
5.929518865017718160e-02,1.612423537413663552e-02,0.000000000000000000e+00
1.254774538352315325e-02,-2.827772840540449667e-02,0.000000000000000000e+00
0.000000000000000000e+00,-3.321127993646462440e-02,0.000000000000000000e+00
-1.981586918569886238e-02,-5.787903759176525609e-02,0.000000000000000000e+00
-3.779565505748887222e-02,-4.307838299858487291e-02,0.000000000000000000e+00
-4.139161223184688321e-02,-5.294548606070512142e-02,0.000000000000000000e+00
-6.296735527799489363e-02,-7.761324371600575311e-02,0.000000000000000000e+00
-8.094714114978489305e-02,-3.321127993646462440e-02,0.000000000000000000e+00
-5.217948375492088148e-02,-3.321127993646462440e-02,0.000000000000000000e+00
-4.498756940620488032e-02,-3.321127993646462440e-02,0.000000000000000000e+00
-7.375522680106889883e-02,-4.801193452964499370e-02,0.000000000000000000e+00
-6.656331245235289074e-02,-2.827772840540449667e-02,0.000000000000000000e+00
-6.296735527799489363e-02,-4.307838299858487291e-02,0.000000000000000000e+00
-4.139161223184688321e-02,-2.827772840540449667e-02,0.000000000000000000e+00
-7.735118397542689594e-02,-2.827772840540449667e-02,0.000000000000000000e+00
-4.858352658056287743e-02,-2.334417687434437241e-02,0.000000000000000000e+00
-5.937139810363688264e-02,-3.814483146752475212e-02,0.000000000000000000e+00
-4.498756940620488032e-02,-1.841062534328424469e-02,0.000000000000000000e+00
-6.296735527799489363e-02,-3.609970750103867580e-03,0.000000000000000000e+00
-3.419969788313087511e-02,4.079199302943727068e-02,1.927635024484003201e-01
0.000000000000000000e+00,0.000000000000000000e+00,1.927635024484003201e-01
0.000000000000000000e+00,0.000000000000000000e+00,1.927635024484003201e-01
0.000000000000000000e+00,0.000000000000000000e+00,1.927635024484003201e-01
0.000000000000000000e+00,0.000000000000000000e+00,1.927635024484003201e-01
0.000000000000000000e+00,0.000000000000000000e+00,1.927635024484003201e-01
0.000000000000000000e+00,0.000000000000000000e+00,1.927635024484003201e-01
0.000000000000000000e+00,0.000000000000000000e+00,1.927635024484003201e-01
0.000000000000000000e+00,0.000000000000000000e+00,1.927635024484003201e-01
0.000000000000000000e+00,0.000000000000000000e+00,1.927635024484003201e-01
0.000000000000000000e+00,0.000000000000000000e+00,1.927635024484003201e-01
0.000000000000000000e+00,0.000000000000000000e+00,1.927635024484003201e-01
0.000000000000000000e+00,0.000000000000000000e+00,1.927635024484003201e-01
0.000000000000000000e+00,0.000000000000000000e+00,1.927635024484003201e-01
0.000000000000000000e+00,0.000000000000000000e+00,1.927635024484003201e-01
0.000000000000000000e+00,0.000000000000000000e+00,1.927635024484003201e-01
0.000000000000000000e+00,0.000000000000000000e+00,1.927635024484003201e-01
0.000000000000000000e+00,0.000000000000000000e+00,1.927635024484003201e-01
0.000000000000000000e+00,0.000000000000000000e+00,1.927635024484003201e-01
0.000000000000000000e+00,0.000000000000000000e+00,1.927635024484003201e-01
0.000000000000000000e+00,0.000000000000000000e+00,1.927635024484003201e-01
0.000000000000000000e+00,0.000000000000000000e+00,1.927635024484003201e-01
0.000000000000000000e+00,0.000000000000000000e+00,1.927635024484003201e-01
0.000000000000000000e+00,0.000000000000000000e+00,1.927635024484003201e-01
0.000000000000000000e+00,0.000000000000000000e+00,1.927635024484003201e-01
0.000000000000000000e+00,0.000000000000000000e+00,1.927635024484003201e-01
0.000000000000000000e+00,0.000000000000000000e+00,1.927635024484003201e-01
0.000000000000000000e+00,0.000000000000000000e+00,1.927635024484003201e-01
0.000000000000000000e+00,0.000000000000000000e+00,1.927635024484003201e-01
0.000000000000000000e+00,0.000000000000000000e+00,1.927635024484003201e-01
0.000000000000000000e+00,0.000000000000000000e+00,1.927635024484003201e-01
0.000000000000000000e+00,0.000000000000000000e+00,1.927635024484003201e-01
0.000000000000000000e+00,0.000000000000000000e+00,1.927635024484003201e-01
0.000000000000000000e+00,0.000000000000000000e+00,1.927635024484003201e-01
0.000000000000000000e+00,0.000000000000000000e+00,1.927635024484003201e-01
0.000000000000000000e+00,0.000000000000000000e+00,1.927635024484003201e-01
0.000000000000000000e+00,0.000000000000000000e+00,1.927635024484003201e-01
0.000000000000000000e+00,0.000000000000000000e+00,1.927635024484003201e-01
0.000000000000000000e+00,0.000000000000000000e+00,1.927635024484003201e-01
0.000000000000000000e+00,0.000000000000000000e+00,1.927635024484003201e-01
0.000000000000000000e+00,0.000000000000000000e+00,1.927635024484003201e-01
0.000000000000000000e+00,0.000000000000000000e+00,1.927635024484003201e-01
0.000000000000000000e+00,0.000000000000000000e+00,1.927635024484003201e-01
0.000000000000000000e+00,0.000000000000000000e+00,1.927635024484003201e-01
0.000000000000000000e+00,0.000000000000000000e+00,1.927635024484003201e-01
0.000000000000000000e+00,0.000000000000000000e+00,1.927635024484003201e-01
0.000000000000000000e+00,0.000000000000000000e+00,1.927635024484003201e-01
0.000000000000000000e+00,0.000000000000000000e+00,1.927635024484003201e-01
0.000000000000000000e+00,0.000000000000000000e+00,1.927635024484003201e-01
0.000000000000000000e+00,0.000000000000000000e+00,1.927635024484003201e-01
