2.822445334603732592e-01,-3.390914748621924324e-01,0.000000000000000000e+00
5.105878140321064018e-01,-5.364335361045974304e-01,0.000000000000000000e+00
3.757394199936813228e-01,-2.231530138822794551e-01,0.000000000000000000e+00
4.764262208757054085e-01,9.012750834003853406e-02,0.000000000000000000e+00
2.462849617167932603e-01,1.690643328370005360e-01,0.000000000000000000e+00
9.165880321939919029e-02,3.565392910172853203e-01,0.000000000000000000e+00
1.959415612757812730e-01,4.700109762316682649e-01,0.000000000000000000e+00
2.354970901937192551e-01,6.426852798187726590e-01,0.000000000000000000e+00
1.563860323578432354e-01,8.104260318748169878e-01,0.000000000000000000e+00
1.635779467065592574e-01,6.476188313498327798e-01,0.000000000000000000e+00
1.923456041014232620e-01,3.318715333619847163e-01,0.000000000000000000e+00
-1.836083313908854061e-03,4.079199302943727068e-02,0.000000000000000000e+00
-3.060374070877287106e-02,2.599133843625689097e-02,0.000000000000000000e+00
-3.779565505748887222e-02,2.599133843625689097e-02,0.000000000000000000e+00
-7.015926962671088785e-02,6.545975068473790237e-02,0.000000000000000000e+00
-6.296735527799489363e-02,2.105778690519676324e-02,0.000000000000000000e+00
-6.656331245235289074e-02,2.599133843625689097e-02,0.000000000000000000e+00
-6.296735527799489363e-02,-2.827772840540449667e-02,0.000000000000000000e+00
-9.892692702157489248e-02,-3.321127993646462440e-02,0.000000000000000000e+00
-1.888258563805249590e-01,-1.269487590266070165e-01,0.000000000000000000e+00
-2.139975566010309804e-01,-8.254679524706588778e-02,0.000000000000000000e+00
-2.967045716112650111e-01,-8.748034677812600857e-02,0.000000000000000000e+00
-3.290681861804870545e-01,-1.269487590266070165e-01,0.000000000000000000e+00
-3.542398864009930759e-01,-1.072145529023665056e-01,0.000000000000000000e+00
-3.722196722727830753e-01,-1.516165166819076482e-01,0.000000000000000000e+00
-4.153711583650790962e-01,-1.318823105576671373e-01,0.000000000000000000e+00
-4.333509442368691511e-01,-1.762842743372082799e-01,0.000000000000000000e+00
-4.297549870625111401e-01,-1.762842743372082799e-01,0.000000000000000000e+00
-4.477347729343010840e-01,-1.960184804614487630e-01,0.000000000000000000e+00
-4.765024303291651164e-01,-2.206862381167494225e-01,0.000000000000000000e+00
-4.585226444573750615e-01,-2.108191350546291531e-01,0.000000000000000000e+00
-4.369469014112271621e-01,-2.749553049584108066e-01,0.000000000000000000e+00
-4.369469014112271621e-01,-2.453539957720500542e-01,0.000000000000000000e+00
-3.794115866214990973e-01,-2.700217534273506859e-01,0.000000000000000000e+00
-3.686237150984250643e-01,-2.897559595515911690e-01,0.000000000000000000e+00
-2.967045716112650111e-01,-2.650882018962905651e-01,0.000000000000000000e+00
-2.175935137753889637e-01,-2.453539957720500542e-01,0.000000000000000000e+00
-1.636541561600189376e-01,-2.404204442409899056e-01,0.000000000000000000e+00
-1.205026700677229168e-01,-1.960184804614487630e-01,0.000000000000000000e+00
-4.498756940620488032e-02,-1.861513773993285215e-01,0.000000000000000000e+00
0.000000000000000000e+00,-1.516165166819076482e-01,0.000000000000000000e+00
4.491135995274516540e-02,-9.734744984024626402e-02,0.000000000000000000e+00
6.289114582453517177e-02,-7.761324371600575311e-02,0.000000000000000000e+00
1.060426319168311926e-01,-4.801193452964499370e-02,0.000000000000000000e+00
9.885071756811519839e-02,-1.841062534328424469e-02,0.000000000000000000e+00
1.132345462655472146e-01,-3.609970750103867580e-03,0.000000000000000000e+00
8.806284604504119318e-02,-1.347707381222412043e-02,0.000000000000000000e+00
9.165880321939919029e-02,1.612423537413663552e-02,0.000000000000000000e+00
8.806284604504119318e-02,2.105778690519676324e-02,0.000000000000000000e+00
6.289114582453517177e-02,1.119068384307650953e-02,0.000000000000000000e+00
5.929518865017718160e-02,2.105778690519676324e-02,0.000000000000000000e+00
8.087093169632518508e-02,2.599133843625689097e-02,0.000000000000000000e+00
6.289114582453517177e-02,2.599133843625689097e-02,0.000000000000000000e+00
4.131540277838716829e-02,1.119068384307650953e-02,0.000000000000000000e+00
5.210327430146116656e-02,5.559264762261764692e-02,0.000000000000000000e+00
5.569923147581917061e-02,2.105778690519676324e-02,0.000000000000000000e+00
4.850731712710316945e-02,3.585844149837714295e-02,0.000000000000000000e+00
5.210327430146116656e-02,3.092488996731701523e-02,0.000000000000000000e+00
4.491135995274516540e-02,3.585844149837714295e-02,0.000000000000000000e+00
3.052753125531316308e-02,3.092488996731701523e-02,0.000000000000000000e+00
3.412348842967116713e-02,3.585844149837714295e-02,0.000000000000000000e+00
1.614370255788115729e-02,2.599133843625689097e-02,0.000000000000000000e+00
3.052753125531316308e-02,4.079199302943727068e-02,0.000000000000000000e+00
1.973965973223915787e-02,3.585844149837714295e-02,0.000000000000000000e+00
4.131540277838716829e-02,3.585844149837714295e-02,0.000000000000000000e+00
5.569923147581917061e-02,6.052619915367778158e-02,0.000000000000000000e+00
1.563860323578432354e-01,-3.814483146752475212e-02,0.000000000000000000e+00
3.469717625988172904e-01,-3.538921294553727948e-01,0.000000000000000000e+00
5.195777069680014293e-01,-4.673638146697556839e-01,0.000000000000000000e+00
3.433758054244592794e-01,-1.540832924474377086e-01,0.000000000000000000e+00
4.620423921782733645e-01,1.591972297748802945e-01,0.000000000000000000e+00
2.319011330193612441e-01,2.825360180513834529e-01,0.000000000000000000e+00
1.959415612757812730e-01,4.305425639831871876e-01,1.927635024484003201e-01
0.000000000000000000e+00,0.000000000000000000e+00,1.927635024484003201e-01
0.000000000000000000e+00,0.000000000000000000e+00,1.927635024484003201e-01
0.000000000000000000e+00,0.000000000000000000e+00,1.927635024484003201e-01
0.000000000000000000e+00,0.000000000000000000e+00,1.927635024484003201e-01
0.000000000000000000e+00,0.000000000000000000e+00,1.927635024484003201e-01
0.000000000000000000e+00,0.000000000000000000e+00,1.927635024484003201e-01
0.000000000000000000e+00,0.000000000000000000e+00,1.927635024484003201e-01
0.000000000000000000e+00,0.000000000000000000e+00,1.927635024484003201e-01
0.000000000000000000e+00,0.000000000000000000e+00,1.927635024484003201e-01
0.000000000000000000e+00,0.000000000000000000e+00,1.927635024484003201e-01
0.000000000000000000e+00,0.000000000000000000e+00,1.927635024484003201e-01
0.000000000000000000e+00,0.000000000000000000e+00,1.927635024484003201e-01
0.000000000000000000e+00,0.000000000000000000e+00,1.927635024484003201e-01
0.000000000000000000e+00,0.000000000000000000e+00,1.927635024484003201e-01
0.000000000000000000e+00,0.000000000000000000e+00,1.927635024484003201e-01
0.000000000000000000e+00,0.000000000000000000e+00,1.927635024484003201e-01
0.000000000000000000e+00,0.000000000000000000e+00,1.927635024484003201e-01
0.000000000000000000e+00,0.000000000000000000e+00,1.927635024484003201e-01
0.000000000000000000e+00,0.000000000000000000e+00,1.927635024484003201e-01
0.000000000000000000e+00,0.000000000000000000e+00,1.927635024484003201e-01
0.000000000000000000e+00,0.000000000000000000e+00,1.927635024484003201e-01
0.000000000000000000e+00,0.000000000000000000e+00,1.927635024484003201e-01
0.000000000000000000e+00,0.000000000000000000e+00,1.927635024484003201e-01
0.000000000000000000e+00,0.000000000000000000e+00,1.927635024484003201e-01
0.000000000000000000e+00,0.000000000000000000e+00,1.927635024484003201e-01
0.000000000000000000e+00,0.000000000000000000e+00,1.927635024484003201e-01
0.000000000000000000e+00,0.000000000000000000e+00,1.927635024484003201e-01
0.000000000000000000e+00,0.000000000000000000e+00,1.927635024484003201e-01
0.000000000000000000e+00,0.000000000000000000e+00,1.927635024484003201e-01
0.000000000000000000e+00,0.000000000000000000e+00,1.927635024484003201e-01
0.000000000000000000e+00,0.000000000000000000e+00,1.927635024484003201e-01
0.000000000000000000e+00,0.000000000000000000e+00,1.927635024484003201e-01
0.000000000000000000e+00,0.000000000000000000e+00,1.927635024484003201e-01
0.000000000000000000e+00,0.000000000000000000e+00,1.927635024484003201e-01
0.000000000000000000e+00,0.000000000000000000e+00,1.927635024484003201e-01
0.000000000000000000e+00,0.000000000000000000e+00,1.927635024484003201e-01
0.000000000000000000e+00,0.000000000000000000e+00,1.927635024484003201e-01
0.000000000000000000e+00,0.000000000000000000e+00,1.927635024484003201e-01
0.000000000000000000e+00,0.000000000000000000e+00,1.927635024484003201e-01
0.000000000000000000e+00,0.000000000000000000e+00,1.927635024484003201e-01
0.000000000000000000e+00,0.000000000000000000e+00,1.927635024484003201e-01
0.000000000000000000e+00,0.000000000000000000e+00,1.927635024484003201e-01
0.000000000000000000e+00,0.000000000000000000e+00,1.927635024484003201e-01
0.000000000000000000e+00,0.000000000000000000e+00,1.927635024484003201e-01
0.000000000000000000e+00,0.000000000000000000e+00,1.927635024484003201e-01
0.000000000000000000e+00,0.000000000000000000e+00,1.927635024484003201e-01
0.000000000000000000e+00,0.000000000000000000e+00,1.927635024484003201e-01
0.000000000000000000e+00,0.000000000000000000e+00,1.927635024484003201e-01
0.000000000000000000e+00,0.000000000000000000e+00,1.927635024484003201e-01
0.000000000000000000e+00,0.000000000000000000e+00,1.927635024484003201e-01
0.000000000000000000e+00,0.000000000000000000e+00,1.927635024484003201e-01
0.000000000000000000e+00,0.000000000000000000e+00,1.927635024484003201e-01
0.000000000000000000e+00,0.000000000000000000e+00,1.927635024484003201e-01
0.000000000000000000e+00,0.000000000000000000e+00,1.927635024484003201e-01
0.000000000000000000e+00,0.000000000000000000e+00,1.927635024484003201e-01
0.000000000000000000e+00,0.000000000000000000e+00,1.927635024484003201e-01
0.000000000000000000e+00,0.000000000000000000e+00,1.927635024484003201e-01
0.000000000000000000e+00,0.000000000000000000e+00,1.927635024484003201e-01
0.000000000000000000e+00,0.000000000000000000e+00,1.927635024484003201e-01
0.000000000000000000e+00,0.000000000000000000e+00,1.927635024484003201e-01
0.000000000000000000e+00,0.000000000000000000e+00,1.927635024484003201e-01
0.000000000000000000e+00,0.000000000000000000e+00,1.927635024484003201e-01
0.000000000000000000e+00,0.000000000000000000e+00,1.927635024484003201e-01
0.000000000000000000e+00,0.000000000000000000e+00,1.927635024484003201e-01
0.000000000000000000e+00,0.000000000000000000e+00,1.927635024484003201e-01
0.000000000000000000e+00,0.000000000000000000e+00,1.927635024484003201e-01
0.000000000000000000e+00,0.000000000000000000e+00,1.927635024484003201e-01
0.000000000000000000e+00,0.000000000000000000e+00,1.927635024484003201e-01
0.000000000000000000e+00,0.000000000000000000e+00,1.927635024484003201e-01
0.000000000000000000e+00,0.000000000000000000e+00,1.927635024484003201e-01
0.000000000000000000e+00,0.000000000000000000e+00,1.927635024484003201e-01
0.000000000000000000e+00,0.000000000000000000e+00,1.927635024484003201e-01
0.000000000000000000e+00,0.000000000000000000e+00,1.927635024484003201e-01
0.000000000000000000e+00,0.000000000000000000e+00,1.927635024484003201e-01
0.000000000000000000e+00,0.000000000000000000e+00,1.927635024484003201e-01
0.000000000000000000e+00,0.000000000000000000e+00,1.927635024484003201e-01
0.000000000000000000e+00,0.000000000000000000e+00,1.927635024484003201e-01
0.000000000000000000e+00,0.000000000000000000e+00,1.927635024484003201e-01
0.000000000000000000e+00,0.000000000000000000e+00,1.927635024484003201e-01
