2.031334756244972672e-01,-1.466829651508475274e-01,0.000000000000000000e+00
4.045070773885453552e-01,-4.328289539523348384e-01,0.000000000000000000e+00
5.771130217577293831e-01,-3.884269901727937513e-01,0.000000000000000000e+00
3.505677197731753014e-01,-7.514646795047569272e-02,0.000000000000000000e+00
1.240224177886212337e-01,4.079199302943727068e-02,0.000000000000000000e+00
-1.061188413702909145e-01,2.282669512097220410e-01,0.000000000000000000e+00
9.525476039375720128e-02,3.466721879551650787e-01,0.000000000000000000e+00
1.635779467065592574e-01,4.650774247006080886e-01,0.000000000000000000e+00
1.923456041014232620e-01,7.117550012536143500e-01,0.000000000000000000e+00
2.211132614962872667e-01,7.906918257505763936e-01,0.000000000000000000e+00
1.887496469270652510e-01,5.686820068528707361e-01,0.000000000000000000e+00
1.707698610552752516e-01,2.529347088650226727e-01,0.000000000000000000e+00
0.000000000000000000e+00,1.612423537413663552e-02,0.000000000000000000e+00
-2.700778353441486701e-02,-2.334417687434437241e-02,0.000000000000000000e+00
-6.296735527799489363e-02,-2.334417687434437241e-02,0.000000000000000000e+00
-8.813905549850090115e-02,-3.321127993646462440e-02,0.000000000000000000e+00
-9.892692702157489248e-02,-4.801193452964499370e-02,0.000000000000000000e+00
-1.061188413702909145e-01,-4.801193452964499370e-02,0.000000000000000000e+00
-1.528662846369449324e-01,-4.307838299858487291e-02,0.000000000000000000e+00
-9.173501267285891214e-02,-7.267969218494563233e-02,0.000000000000000000e+00
-1.564622418113029434e-01,-6.281258912282537687e-02,0.000000000000000000e+00
-1.240986272420809000e-01,-5.787903759176525609e-02,0.000000000000000000e+00
-1.348864987651549052e-01,-6.774614065388549766e-02,0.000000000000000000e+00
-1.708460705087349318e-01,-6.774614065388549766e-02,0.000000000000000000e+00
-1.492703274625869214e-01,-6.774614065388549766e-02,0.000000000000000000e+00
-1.456743702882289104e-01,-8.748034677812600857e-02,0.000000000000000000e+00
-1.528662846369449324e-01,-7.761324371600575311e-02,0.000000000000000000e+00
-1.924218135548829423e-01,-1.022810013713063848e-01,0.000000000000000000e+00
-2.032096850779569475e-01,-1.121481044334266264e-01,0.000000000000000000e+00
-1.708460705087349318e-01,-1.269487590266070165e-01,0.000000000000000000e+00
-1.996137279035989365e-01,-1.466829651508475274e-01,0.000000000000000000e+00
-2.104015994266729694e-01,-1.664171712750880383e-01,0.000000000000000000e+00
-1.456743702882289104e-01,-1.713507228061481591e-01,0.000000000000000000e+00
-2.175935137753889637e-01,-1.910849289303886422e-01,0.000000000000000000e+00
-1.456743702882289104e-01,-2.009520319925089116e-01,0.000000000000000000e+00
-1.744420276830929428e-01,-2.157526865856893017e-01,0.000000000000000000e+00
-8.454309832414290404e-02,-2.354868927099298126e-01,0.000000000000000000e+00
-6.296735527799489363e-02,-1.960184804614487630e-01,0.000000000000000000e+00
2.693157408095516250e-02,-2.108191350546291531e-01,0.000000000000000000e+00
1.973965973223915787e-02,-1.713507228061481591e-01,0.000000000000000000e+00
1.096385890911892036e-01,-1.861513773993285215e-01,0.000000000000000000e+00
1.276183749629792308e-01,-1.417494136197874066e-01,0.000000000000000000e+00
1.815577325783492568e-01,-1.466829651508475274e-01,0.000000000000000000e+00
1.959415612757812730e-01,-1.368158620887272581e-01,0.000000000000000000e+00
2.426890045424352493e-01,-6.281258912282537687e-02,0.000000000000000000e+00
2.462849617167932603e-01,-6.281258912282537687e-02,0.000000000000000000e+00
2.678607047629412707e-01,-6.774614065388549766e-02,0.000000000000000000e+00
2.462849617167932603e-01,-2.827772840540449667e-02,0.000000000000000000e+00
2.606687904142253043e-01,-2.334417687434437241e-02,0.000000000000000000e+00
2.606687904142253043e-01,-2.827772840540449667e-02,0.000000000000000000e+00
2.390930473680772661e-01,-2.827772840540449667e-02,0.000000000000000000e+00
2.498809188911512713e-01,-2.334417687434437241e-02,0.000000000000000000e+00
2.462849617167932603e-01,-3.609970750103867580e-03,0.000000000000000000e+00
2.462849617167932603e-01,-1.841062534328424469e-02,0.000000000000000000e+00
2.390930473680772661e-01,-2.334417687434437241e-02,0.000000000000000000e+00
2.462849617167932603e-01,-3.321127993646462440e-02,0.000000000000000000e+00
2.283051758450032886e-01,-2.334417687434437241e-02,0.000000000000000000e+00
2.498809188911512713e-01,-1.347707381222412043e-02,0.000000000000000000e+00
2.570728332398672933e-01,-4.307838299858487291e-02,0.000000000000000000e+00
2.283051758450032886e-01,-2.334417687434437241e-02,0.000000000000000000e+00
2.462849617167932603e-01,-1.841062534328424469e-02,0.000000000000000000e+00
2.354970901937192551e-01,-2.334417687434437241e-02,0.000000000000000000e+00
2.319011330193612441e-01,-2.827772840540449667e-02,0.000000000000000000e+00
2.175173043219292557e-01,-2.827772840540449667e-02,0.000000000000000000e+00
2.498809188911512713e-01,-3.321127993646462440e-02,0.000000000000000000e+00
1.887496469270652510e-01,-2.334417687434437241e-02,0.000000000000000000e+00
2.139213471475712447e-01,-1.347707381222412043e-02,0.000000000000000000e+00
1.995375184501392840e-01,-4.307838299858487291e-02,0.000000000000000000e+00
1.995375184501392840e-01,-2.334417687434437241e-02,0.000000000000000000e+00
1.851536897527072678e-01,-1.347707381222412043e-02,0.000000000000000000e+00
1.707698610552752516e-01,-3.321127993646462440e-02,0.000000000000000000e+00
1.563860323578432354e-01,-1.347707381222412043e-02,0.000000000000000000e+00
1.815577325783492568e-01,-2.334417687434437241e-02,0.000000000000000000e+00
1.635779467065592574e-01,-8.543522281163994439e-03,0.000000000000000000e+00
1.563860323578432354e-01,-3.814483146752475212e-02,0.000000000000000000e+00
1.851536897527072678e-01,1.119068384307650953e-02,0.000000000000000000e+00
1.671739038809172406e-01,1.323580780956258628e-03,0.000000000000000000e+00
2.031334756244972672e-01,3.092488996731701523e-02,0.000000000000000000e+00
2.103253899732132892e-01,4.079199302943727068e-02,0.000000000000000000e+00
2.283051758450032886e-01,2.599133843625689097e-02,0.000000000000000000e+00
1.995375184501392840e-01,1.119068384307650953e-02,0.000000000000000000e+00
1.563860323578432354e-01,-2.827772840540449667e-02,0.000000000000000000e+00
1.420022036604112470e-01,-5.787903759176525609e-02,0.000000000000000000e+00
1.384062464860532360e-01,-3.321127993646462440e-02,0.000000000000000000e+00
1.132345462655472146e-01,-2.827772840540449667e-02,0.000000000000000000e+00
1.096385890911892036e-01,-2.827772840540449667e-02,0.000000000000000000e+00
9.525476039375720128e-02,-6.281258912282537687e-02,0.000000000000000000e+00
1.060426319168311926e-01,-4.307838299858487291e-02,0.000000000000000000e+00
9.525476039375720128e-02,-3.321127993646462440e-02,0.000000000000000000e+00
9.885071756811519839e-02,-1.347707381222412043e-02,0.000000000000000000e+00
9.165880321939919029e-02,-1.841062534328424469e-02,0.000000000000000000e+00
7.727497452196718797e-02,-8.543522281163994439e-03,0.000000000000000000e+00
8.806284604504119318e-02,-3.814483146752475212e-02,0.000000000000000000e+00
6.289114582453517177e-02,-8.543522281163994439e-03,0.000000000000000000e+00
9.165880321939919029e-02,-1.841062534328424469e-02,0.000000000000000000e+00
7.367901734760917698e-02,-1.347707381222412043e-02,0.000000000000000000e+00
8.446688887068319607e-02,-1.347707381222412043e-02,0.000000000000000000e+00
6.648710299889318276e-02,-2.827772840540449667e-02,0.000000000000000000e+00
9.165880321939919029e-02,1.612423537413663552e-02,0.000000000000000000e+00
9.885071756811519839e-02,7.039330221579802316e-02,0.000000000000000000e+00
1.420022036604112470e-01,-2.334417687434437241e-02,1.927635024484003201e-01
0.000000000000000000e+00,0.000000000000000000e+00,1.927635024484003201e-01
0.000000000000000000e+00,0.000000000000000000e+00,1.927635024484003201e-01
0.000000000000000000e+00,0.000000000000000000e+00,1.927635024484003201e-01
0.000000000000000000e+00,0.000000000000000000e+00,1.927635024484003201e-01
0.000000000000000000e+00,0.000000000000000000e+00,1.927635024484003201e-01
0.000000000000000000e+00,0.000000000000000000e+00,1.927635024484003201e-01
0.000000000000000000e+00,0.000000000000000000e+00,1.927635024484003201e-01
0.000000000000000000e+00,0.000000000000000000e+00,1.927635024484003201e-01
0.000000000000000000e+00,0.000000000000000000e+00,1.927635024484003201e-01
0.000000000000000000e+00,0.000000000000000000e+00,1.927635024484003201e-01
0.000000000000000000e+00,0.000000000000000000e+00,1.927635024484003201e-01
0.000000000000000000e+00,0.000000000000000000e+00,1.927635024484003201e-01
0.000000000000000000e+00,0.000000000000000000e+00,1.927635024484003201e-01
0.000000000000000000e+00,0.000000000000000000e+00,1.927635024484003201e-01
0.000000000000000000e+00,0.000000000000000000e+00,1.927635024484003201e-01
0.000000000000000000e+00,0.000000000000000000e+00,1.927635024484003201e-01
0.000000000000000000e+00,0.000000000000000000e+00,1.927635024484003201e-01
0.000000000000000000e+00,0.000000000000000000e+00,1.927635024484003201e-01
0.000000000000000000e+00,0.000000000000000000e+00,1.927635024484003201e-01
0.000000000000000000e+00,0.000000000000000000e+00,1.927635024484003201e-01
0.000000000000000000e+00,0.000000000000000000e+00,1.927635024484003201e-01
0.000000000000000000e+00,0.000000000000000000e+00,1.927635024484003201e-01
0.000000000000000000e+00,0.000000000000000000e+00,1.927635024484003201e-01
0.000000000000000000e+00,0.000000000000000000e+00,1.927635024484003201e-01
0.000000000000000000e+00,0.000000000000000000e+00,1.927635024484003201e-01
0.000000000000000000e+00,0.000000000000000000e+00,1.927635024484003201e-01
0.000000000000000000e+00,0.000000000000000000e+00,1.927635024484003201e-01
0.000000000000000000e+00,0.000000000000000000e+00,1.927635024484003201e-01
0.000000000000000000e+00,0.000000000000000000e+00,1.927635024484003201e-01
0.000000000000000000e+00,0.000000000000000000e+00,1.927635024484003201e-01
0.000000000000000000e+00,0.000000000000000000e+00,1.927635024484003201e-01
0.000000000000000000e+00,0.000000000000000000e+00,1.927635024484003201e-01
0.000000000000000000e+00,0.000000000000000000e+00,1.927635024484003201e-01
0.000000000000000000e+00,0.000000000000000000e+00,1.927635024484003201e-01
0.000000000000000000e+00,0.000000000000000000e+00,1.927635024484003201e-01
0.000000000000000000e+00,0.000000000000000000e+00,1.927635024484003201e-01
0.000000000000000000e+00,0.000000000000000000e+00,1.927635024484003201e-01
0.000000000000000000e+00,0.000000000000000000e+00,1.927635024484003201e-01
0.000000000000000000e+00,0.000000000000000000e+00,1.927635024484003201e-01
0.000000000000000000e+00,0.000000000000000000e+00,1.927635024484003201e-01
0.000000000000000000e+00,0.000000000000000000e+00,1.927635024484003201e-01
0.000000000000000000e+00,0.000000000000000000e+00,1.927635024484003201e-01
0.000000000000000000e+00,0.000000000000000000e+00,1.927635024484003201e-01
0.000000000000000000e+00,0.000000000000000000e+00,1.927635024484003201e-01
0.000000000000000000e+00,0.000000000000000000e+00,1.927635024484003201e-01
0.000000000000000000e+00,0.000000000000000000e+00,1.927635024484003201e-01
0.000000000000000000e+00,0.000000000000000000e+00,1.927635024484003201e-01
0.000000000000000000e+00,0.000000000000000000e+00,1.927635024484003201e-01
0.000000000000000000e+00,0.000000000000000000e+00,1.927635024484003201e-01
0.000000000000000000e+00,0.000000000000000000e+00,1.927635024484003201e-01
0.000000000000000000e+00,0.000000000000000000e+00,1.927635024484003201e-01
