1.923456041014232620e-01,2.430676058029024311e-01,0.000000000000000000e+00
4.045070773885453552e-01,3.318715333619847163e-01,0.000000000000000000e+00
4.332747347834093321e-01,5.045458369490891659e-01,0.000000000000000000e+00
4.368706919577673431e-01,5.193464915422695283e-01,0.000000000000000000e+00
4.980019639218534189e-01,3.713399456104657381e-01,0.000000000000000000e+00
3.829313343423973448e-01,5.559264762261764692e-02,0.000000000000000000e+00
1.527900751834852244e-01,-5.294548606070512142e-02,0.000000000000000000e+00
-7.735118397542689594e-02,-1.072145529023665056e-01,0.000000000000000000e+00
-1.420784131138708994e-01,-7.761324371600575311e-02,0.000000000000000000e+00
-1.636541561600189376e-01,-1.072145529023665056e-01,0.000000000000000000e+00
-2.139975566010309804e-01,-1.466829651508475274e-01,0.000000000000000000e+00
-2.068056422523149585e-01,-9.241389830918614323e-02,0.000000000000000000e+00
-2.104015994266729694e-01,-1.368158620887272581e-01,0.000000000000000000e+00
-1.924218135548829423e-01,-7.761324371600575311e-02,0.000000000000000000e+00
-2.535530855189689903e-01,-1.713507228061481591e-01,0.000000000000000000e+00
-2.211894709497469746e-01,-6.281258912282537687e-02,0.000000000000000000e+00
-2.247854281241049301e-01,-1.861513773993285215e-01,0.000000000000000000e+00
-2.499571283446109793e-01,-1.121481044334266264e-01,0.000000000000000000e+00
-2.571490426933270013e-01,-1.565500682129677967e-01,0.000000000000000000e+00
-2.751288285651170562e-01,-1.664171712750880383e-01,0.000000000000000000e+00
-3.218762718317710325e-01,-1.318823105576671373e-01,0.000000000000000000e+00
-3.003005287856230221e-01,-1.565500682129677967e-01,0.000000000000000000e+00
-2.967045716112650111e-01,-1.664171712750880383e-01,0.000000000000000000e+00
-3.074924431343390441e-01,-1.713507228061481591e-01,0.000000000000000000e+00
-2.859167000881909781e-01,-1.910849289303886422e-01,0.000000000000000000e+00
-2.859167000881909781e-01,-2.157526865856893017e-01,0.000000000000000000e+00
-2.499571283446109793e-01,-2.354868927099298126e-01,0.000000000000000000e+00
-2.355732996471789908e-01,-2.601546503652304443e-01,0.000000000000000000e+00
-1.600581989856609266e-01,-2.256197896478095433e-01,0.000000000000000000e+00
-1.384824559395129162e-01,-2.108191350546291531e-01,0.000000000000000000e+00
-6.656331245235289074e-02,-2.256197896478095433e-01,0.000000000000000000e+00
-3.419969788313087511e-02,-1.466829651508475274e-01,0.000000000000000000e+00
-1.262395483698285949e-02,-1.762842743372082799e-01,0.000000000000000000e+00
1.132345462655472146e-01,-1.861513773993285215e-01,0.000000000000000000e+00
6.648710299889318276e-02,-1.022810013713063848e-01,0.000000000000000000e+00
1.384062464860532360e-01,-8.254679524706588778e-02,0.000000000000000000e+00
1.599819895322012464e-01,-1.121481044334266264e-01,0.000000000000000000e+00
1.168305034399052117e-01,-8.748034677812600857e-02,0.000000000000000000e+00
2.426890045424352493e-01,-1.841062534328424469e-02,0.000000000000000000e+00
7.008306017325117987e-02,-2.827772840540449667e-02,0.000000000000000000e+00
1.923456041014232620e-01,-1.347707381222412043e-02,0.000000000000000000e+00
9.885071756811519839e-02,-3.814483146752475212e-02,0.000000000000000000e+00
1.348102893116952250e-01,-8.543522281163994439e-03,0.000000000000000000e+00
1.024466747424731955e-01,2.599133843625689097e-02,0.000000000000000000e+00
5.210327430146116656e-02,-8.543522281163994439e-03,0.000000000000000000e+00
1.420022036604112470e-01,-8.543522281163994439e-03,0.000000000000000000e+00
7.367901734760917698e-02,-3.609970750103867580e-03,0.000000000000000000e+00
1.024466747424731955e-01,-3.609970750103867580e-03,0.000000000000000000e+00
5.929518865017718160e-02,1.119068384307650953e-02,0.000000000000000000e+00
1.024466747424731955e-01,5.065909609155752613e-02,0.000000000000000000e+00
5.210327430146116656e-02,2.105778690519676324e-02,0.000000000000000000e+00
9.885071756811519839e-02,-8.543522281163994439e-03,0.000000000000000000e+00
5.929518865017718160e-02,1.119068384307650953e-02,0.000000000000000000e+00
4.850731712710316945e-02,0.000000000000000000e+00,0.000000000000000000e+00
5.569923147581917061e-02,-8.543522281163994439e-03,0.000000000000000000e+00
6.648710299889318276e-02,-3.609970750103867580e-03,0.000000000000000000e+00
4.491135995274516540e-02,-8.543522281163994439e-03,0.000000000000000000e+00
3.771944560402916424e-02,-2.827772840540449667e-02,0.000000000000000000e+00
5.210327430146116656e-02,-2.334417687434437241e-02,0.000000000000000000e+00
2.333561690659716192e-02,-2.334417687434437241e-02,0.000000000000000000e+00
3.412348842967116713e-02,-3.609970750103867580e-03,0.000000000000000000e+00
3.052753125531316308e-02,1.612423537413663552e-02,0.000000000000000000e+00
4.491135995274516540e-02,1.119068384307650953e-02,0.000000000000000000e+00
3.771944560402916424e-02,-3.609970750103867580e-03,0.000000000000000000e+00
1.973965973223915787e-02,2.599133843625689097e-02,0.000000000000000000e+00
3.052753125531316308e-02,2.105778690519676324e-02,0.000000000000000000e+00
4.491135995274516540e-02,0.000000000000000000e+00,0.000000000000000000e+00
1.254774538352315325e-02,1.323580780956258628e-03,0.000000000000000000e+00
1.759873860449148036e-03,-3.609970750103867580e-03,0.000000000000000000e+00
3.412348842967116713e-02,-8.543522281163994439e-03,0.000000000000000000e+00
8.951788209165152665e-03,-3.609970750103867580e-03,0.000000000000000000e+00
1.759873860449148036e-03,-8.543522281163994439e-03,0.000000000000000000e+00
-9.027997662624857172e-03,-2.827772840540449667e-02,0.000000000000000000e+00
8.951788209165152665e-03,-2.827772840540449667e-02,0.000000000000000000e+00
1.614370255788115729e-02,1.323580780956258628e-03,0.000000000000000000e+00
4.850731712710316945e-02,-3.609970750103867580e-03,0.000000000000000000e+00
3.412348842967116713e-02,2.599133843625689097e-02,0.000000000000000000e+00
1.312143321373372140e-01,7.039330221579802316e-02,0.000000000000000000e+00
4.491135995274516540e-02,3.092488996731701523e-02,0.000000000000000000e+00
7.367901734760917698e-02,1.612423537413663552e-02,0.000000000000000000e+00
3.412348842967116713e-02,-2.827772840540449667e-02,0.000000000000000000e+00
3.412348842967116713e-02,-2.827772840540449667e-02,0.000000000000000000e+00
2.333561690659716192e-02,-1.347707381222412043e-02,0.000000000000000000e+00
-9.027997662624857172e-03,-1.347707381222412043e-02,0.000000000000000000e+00
-1.836083313908854061e-03,-2.827772840540449667e-02,0.000000000000000000e+00
3.052753125531316308e-02,-3.814483146752475212e-02,0.000000000000000000e+00
-1.836083313908854061e-03,-3.609970750103867580e-03,0.000000000000000000e+00
1.973965973223915787e-02,-1.841062534328424469e-02,0.000000000000000000e+00
1.614370255788115729e-02,-1.347707381222412043e-02,0.000000000000000000e+00
-1.621991201134086180e-02,-8.543522281163994439e-03,0.000000000000000000e+00
-2.700778353441486701e-02,-1.347707381222412043e-02,0.000000000000000000e+00
1.614370255788115729e-02,-8.543522281163994439e-03,0.000000000000000000e+00
-1.262395483698285949e-02,2.105778690519676324e-02,0.000000000000000000e+00
-9.027997662624857172e-03,1.323580780956258628e-03,0.000000000000000000e+00
1.614370255788115729e-02,1.323580780956258628e-03,0.000000000000000000e+00
-1.621991201134086180e-02,0.000000000000000000e+00,0.000000000000000000e+00
-3.060374070877287106e-02,1.612423537413663552e-02,0.000000000000000000e+00
-9.027997662624857172e-03,3.585844149837714295e-02,0.000000000000000000e+00
2.693157408095516250e-02,9.012750834003853406e-02,0.000000000000000000e+00
3.771944560402916424e-02,-8.543522281163994439e-03,0.000000000000000000e+00
2.426890045424352493e-01,-2.749553049584108066e-01,0.000000000000000000e+00
4.260828204346934212e-01,-5.265664330424772999e-01,0.000000000000000000e+00
3.865272915167553558e-01,-2.132859108201592135e-01,0.000000000000000000e+00
3.577596341218913234e-01,9.999461140215877564e-02,0.000000000000000000e+00
1.276183749629792308e-01,9.012750834003853406e-02,0.000000000000000000e+00
-9.027997662624857172e-03,2.874695695824435737e-01,1.927635024484003201e-01
0.000000000000000000e+00,0.000000000000000000e+00,1.927635024484003201e-01
0.000000000000000000e+00,0.000000000000000000e+00,1.927635024484003201e-01
0.000000000000000000e+00,0.000000000000000000e+00,1.927635024484003201e-01
0.000000000000000000e+00,0.000000000000000000e+00,1.927635024484003201e-01
0.000000000000000000e+00,0.000000000000000000e+00,1.927635024484003201e-01
0.000000000000000000e+00,0.000000000000000000e+00,1.927635024484003201e-01
0.000000000000000000e+00,0.000000000000000000e+00,1.927635024484003201e-01
0.000000000000000000e+00,0.000000000000000000e+00,1.927635024484003201e-01
0.000000000000000000e+00,0.000000000000000000e+00,1.927635024484003201e-01
0.000000000000000000e+00,0.000000000000000000e+00,1.927635024484003201e-01
0.000000000000000000e+00,0.000000000000000000e+00,1.927635024484003201e-01
0.000000000000000000e+00,0.000000000000000000e+00,1.927635024484003201e-01
0.000000000000000000e+00,0.000000000000000000e+00,1.927635024484003201e-01
0.000000000000000000e+00,0.000000000000000000e+00,1.927635024484003201e-01
0.000000000000000000e+00,0.000000000000000000e+00,1.927635024484003201e-01
0.000000000000000000e+00,0.000000000000000000e+00,1.927635024484003201e-01
0.000000000000000000e+00,0.000000000000000000e+00,1.927635024484003201e-01
0.000000000000000000e+00,0.000000000000000000e+00,1.927635024484003201e-01
0.000000000000000000e+00,0.000000000000000000e+00,1.927635024484003201e-01
0.000000000000000000e+00,0.000000000000000000e+00,1.927635024484003201e-01
0.000000000000000000e+00,0.000000000000000000e+00,1.927635024484003201e-01
0.000000000000000000e+00,0.000000000000000000e+00,1.927635024484003201e-01
0.000000000000000000e+00,0.000000000000000000e+00,1.927635024484003201e-01
0.000000000000000000e+00,0.000000000000000000e+00,1.927635024484003201e-01
0.000000000000000000e+00,0.000000000000000000e+00,1.927635024484003201e-01
0.000000000000000000e+00,0.000000000000000000e+00,1.927635024484003201e-01
0.000000000000000000e+00,0.000000000000000000e+00,1.927635024484003201e-01
0.000000000000000000e+00,0.000000000000000000e+00,1.927635024484003201e-01
0.000000000000000000e+00,0.000000000000000000e+00,1.927635024484003201e-01
0.000000000000000000e+00,0.000000000000000000e+00,1.927635024484003201e-01
0.000000000000000000e+00,0.000000000000000000e+00,1.927635024484003201e-01
0.000000000000000000e+00,0.000000000000000000e+00,1.927635024484003201e-01
0.000000000000000000e+00,0.000000000000000000e+00,1.927635024484003201e-01
0.000000000000000000e+00,0.000000000000000000e+00,1.927635024484003201e-01
0.000000000000000000e+00,0.000000000000000000e+00,1.927635024484003201e-01
0.000000000000000000e+00,0.000000000000000000e+00,1.927635024484003201e-01
0.000000000000000000e+00,0.000000000000000000e+00,1.927635024484003201e-01
0.000000000000000000e+00,0.000000000000000000e+00,1.927635024484003201e-01
0.000000000000000000e+00,0.000000000000000000e+00,1.927635024484003201e-01
0.000000000000000000e+00,0.000000000000000000e+00,1.927635024484003201e-01
0.000000000000000000e+00,0.000000000000000000e+00,1.927635024484003201e-01
0.000000000000000000e+00,0.000000000000000000e+00,1.927635024484003201e-01
0.000000000000000000e+00,0.000000000000000000e+00,1.927635024484003201e-01
0.000000000000000000e+00,0.000000000000000000e+00,1.927635024484003201e-01
0.000000000000000000e+00,0.000000000000000000e+00,1.927635024484003201e-01
0.000000000000000000e+00,0.000000000000000000e+00,1.927635024484003201e-01
