2.103253899732132892e-01,-3.292243718000721908e-01,0.000000000000000000e+00
4.332747347834093321e-01,-5.907026029462588701e-01,0.000000000000000000e+00
2.139213471475712447e-01,-2.774220807239408670e-01,0.000000000000000000e+00
3.361838910757433130e-01,3.585844149837714295e-02,0.000000000000000000e+00
1.060426319168311926e-01,1.739978843680606846e-01,0.000000000000000000e+00
-7.735118397542689594e-02,3.713399456104657381e-01,0.000000000000000000e+00
5.929518865017718160e-02,4.946787338869688688e-01,0.000000000000000000e+00
1.060426319168311926e-01,7.117550012536143500e-01,0.000000000000000000e+00
6.289114582453517177e-02,8.794957533096586788e-01,0.000000000000000000e+00
4.131540277838716829e-02,6.673530374740732629e-01,0.000000000000000000e+00
6.289114582453517177e-02,3.516057394862252550e-01,0.000000000000000000e+00
-1.169067128933649058e-01,3.585844149837714295e-02,0.000000000000000000e+00
-1.528662846369449324e-01,-8.543522281163994439e-03,0.000000000000000000e+00
-1.636541561600189376e-01,-2.827772840540449667e-02,0.000000000000000000e+00
-1.996137279035989365e-01,-2.334417687434437241e-02,0.000000000000000000e+00
-2.032096850779569475e-01,-5.294548606070512142e-02,0.000000000000000000e+00
-2.139975566010309804e-01,-4.307838299858487291e-02,0.000000000000000000e+00
-2.283813852984629411e-01,-2.827772840540449667e-02,0.000000000000000000e+00
-2.427652139958950128e-01,-6.281258912282537687e-02,0.000000000000000000e+00
-2.463611711702529683e-01,-5.787903759176525609e-02,0.000000000000000000e+00
-2.571490426933270013e-01,-5.787903759176525609e-02,0.000000000000000000e+00
-2.535530855189689903e-01,-7.761324371600575311e-02,0.000000000000000000e+00
-2.823207429138330227e-01,-7.761324371600575311e-02,0.000000000000000000e+00
-3.003005287856230221e-01,-8.254679524706588778e-02,0.000000000000000000e+00
-2.859167000881909781e-01,-9.241389830918614323e-02,0.000000000000000000e+00
-3.182803146574130770e-01,-1.121481044334266264e-01,0.000000000000000000e+00
-3.326641433548450655e-01,-1.022810013713063848e-01,0.000000000000000000e+00
-3.398560577035610319e-01,-1.466829651508475274e-01,0.000000000000000000e+00
-3.578358435753510314e-01,-1.368158620887272581e-01,0.000000000000000000e+00
-3.686237150984250643e-01,-1.614836197440279175e-01,0.000000000000000000e+00
-3.578358435753510314e-01,-1.960184804614487630e-01,0.000000000000000000e+00
-3.686237150984250643e-01,-2.009520319925089116e-01,0.000000000000000000e+00
-3.470479720522770539e-01,-2.108191350546291531e-01,0.000000000000000000e+00
-3.398560577035610319e-01,-2.354868927099298126e-01,0.000000000000000000e+00
-2.931086144369070001e-01,-2.305533411788696641e-01,0.000000000000000000e+00
-2.391692568215370018e-01,-2.256197896478095433e-01,0.000000000000000000e+00
-2.211894709497469746e-01,-2.404204442409899056e-01,0.000000000000000000e+00
-1.169067128933649058e-01,-2.108191350546291531e-01,0.000000000000000000e+00
-8.094714114978489305e-02,-1.960184804614487630e-01,0.000000000000000000e+00
-3.060374070877287106e-02,-1.812178258682684007e-01,0.000000000000000000e+00
4.131540277838716829e-02,-1.466829651508475274e-01,0.000000000000000000e+00
5.569923147581917061e-02,-1.220152074955468957e-01,0.000000000000000000e+00
1.024466747424731955e-01,-1.022810013713063848e-01,0.000000000000000000e+00
1.204264606142632227e-01,-6.281258912282537687e-02,0.000000000000000000e+00
1.491941180091272412e-01,-3.321127993646462440e-02,0.000000000000000000e+00
1.563860323578432354e-01,-3.321127993646462440e-02,0.000000000000000000e+00
1.420022036604112470e-01,-1.841062534328424469e-02,0.000000000000000000e+00
1.599819895322012464e-01,4.079199302943727068e-02,0.000000000000000000e+00
1.384062464860532360e-01,-2.334417687434437241e-02,0.000000000000000000e+00
1.527900751834852244e-01,2.105778690519676324e-02,0.000000000000000000e+00
1.420022036604112470e-01,2.105778690519676324e-02,0.000000000000000000e+00
1.348102893116952250e-01,1.119068384307650953e-02,0.000000000000000000e+00
1.635779467065592574e-01,2.599133843625689097e-02,0.000000000000000000e+00
1.563860323578432354e-01,3.092488996731701523e-02,0.000000000000000000e+00
1.563860323578432354e-01,2.599133843625689097e-02,0.000000000000000000e+00
1.527900751834852244e-01,3.585844149837714295e-02,0.000000000000000000e+00
1.743658182296332626e-01,3.585844149837714295e-02,0.000000000000000000e+00
1.671739038809172406e-01,3.092488996731701523e-02,0.000000000000000000e+00
1.563860323578432354e-01,4.572554456049739841e-02,0.000000000000000000e+00
1.815577325783492568e-01,4.079199302943727068e-02,0.000000000000000000e+00
1.635779467065592574e-01,3.585844149837714295e-02,0.000000000000000000e+00
1.563860323578432354e-01,4.079199302943727068e-02,0.000000000000000000e+00
1.312143321373372140e-01,3.585844149837714295e-02,0.000000000000000000e+00
1.599819895322012464e-01,3.585844149837714295e-02,0.000000000000000000e+00
1.671739038809172406e-01,2.599133843625689097e-02,0.000000000000000000e+00
1.491941180091272412e-01,5.559264762261764692e-02,0.000000000000000000e+00
1.276183749629792308e-01,1.119068384307650953e-02,0.000000000000000000e+00
1.420022036604112470e-01,2.105778690519676324e-02,0.000000000000000000e+00
1.527900751834852244e-01,2.599133843625689097e-02,0.000000000000000000e+00
1.276183749629792308e-01,1.323580780956258628e-03,0.000000000000000000e+00
1.348102893116952250e-01,2.105778690519676324e-02,0.000000000000000000e+00
1.420022036604112470e-01,2.599133843625689097e-02,0.000000000000000000e+00
9.885071756811519839e-02,1.612423537413663552e-02,0.000000000000000000e+00
1.276183749629792308e-01,-8.543522281163994439e-03,0.000000000000000000e+00
1.240224177886212337e-01,2.599133843625689097e-02,0.000000000000000000e+00
1.563860323578432354e-01,1.612423537413663552e-02,0.000000000000000000e+00
1.743658182296332626e-01,5.559264762261764692e-02,0.000000000000000000e+00
2.175173043219292557e-01,8.026040527791827861e-02,0.000000000000000000e+00
1.959415612757812730e-01,4.572554456049739841e-02,0.000000000000000000e+00
1.923456041014232620e-01,3.585844149837714295e-02,0.000000000000000000e+00
1.563860323578432354e-01,2.105778690519676324e-02,0.000000000000000000e+00
1.348102893116952250e-01,-3.814483146752475212e-02,0.000000000000000000e+00
1.276183749629792308e-01,-3.814483146752475212e-02,0.000000000000000000e+00
1.060426319168311926e-01,-1.347707381222412043e-02,0.000000000000000000e+00
1.204264606142632227e-01,-3.321127993646462440e-02,0.000000000000000000e+00
1.132345462655472146e-01,-3.814483146752475212e-02,0.000000000000000000e+00
9.885071756811519839e-02,-3.814483146752475212e-02,0.000000000000000000e+00
9.165880321939919029e-02,-3.609970750103867580e-03,0.000000000000000000e+00
1.132345462655472146e-01,-1.347707381222412043e-02,0.000000000000000000e+00
8.446688887068319607e-02,-8.543522281163994439e-03,0.000000000000000000e+00
1.132345462655472146e-01,-1.841062534328424469e-02,0.000000000000000000e+00
7.727497452196718797e-02,-2.827772840540449667e-02,0.000000000000000000e+00
1.096385890911892036e-01,1.612423537413663552e-02,0.000000000000000000e+00
1.024466747424731955e-01,-2.334417687434437241e-02,0.000000000000000000e+00
9.885071756811519839e-02,-1.347707381222412043e-02,0.000000000000000000e+00
1.024466747424731955e-01,-1.841062534328424469e-02,0.000000000000000000e+00
1.096385890911892036e-01,-3.609970750103867580e-03,0.000000000000000000e+00
9.885071756811519839e-02,2.105778690519676324e-02,0.000000000000000000e+00
1.420022036604112470e-01,5.065909609155752613e-02,0.000000000000000000e+00
1.995375184501392840e-01,-1.347707381222412043e-02,1.927635024484003201e-01
0.000000000000000000e+00,0.000000000000000000e+00,1.927635024484003201e-01
0.000000000000000000e+00,0.000000000000000000e+00,1.927635024484003201e-01
0.000000000000000000e+00,0.000000000000000000e+00,1.927635024484003201e-01
0.000000000000000000e+00,0.000000000000000000e+00,1.927635024484003201e-01
0.000000000000000000e+00,0.000000000000000000e+00,1.927635024484003201e-01
0.000000000000000000e+00,0.000000000000000000e+00,1.927635024484003201e-01
0.000000000000000000e+00,0.000000000000000000e+00,1.927635024484003201e-01
0.000000000000000000e+00,0.000000000000000000e+00,1.927635024484003201e-01
0.000000000000000000e+00,0.000000000000000000e+00,1.927635024484003201e-01
0.000000000000000000e+00,0.000000000000000000e+00,1.927635024484003201e-01
0.000000000000000000e+00,0.000000000000000000e+00,1.927635024484003201e-01
0.000000000000000000e+00,0.000000000000000000e+00,1.927635024484003201e-01
0.000000000000000000e+00,0.000000000000000000e+00,1.927635024484003201e-01
0.000000000000000000e+00,0.000000000000000000e+00,1.927635024484003201e-01
0.000000000000000000e+00,0.000000000000000000e+00,1.927635024484003201e-01
0.000000000000000000e+00,0.000000000000000000e+00,1.927635024484003201e-01
0.000000000000000000e+00,0.000000000000000000e+00,1.927635024484003201e-01
0.000000000000000000e+00,0.000000000000000000e+00,1.927635024484003201e-01
0.000000000000000000e+00,0.000000000000000000e+00,1.927635024484003201e-01
0.000000000000000000e+00,0.000000000000000000e+00,1.927635024484003201e-01
0.000000000000000000e+00,0.000000000000000000e+00,1.927635024484003201e-01
0.000000000000000000e+00,0.000000000000000000e+00,1.927635024484003201e-01
0.000000000000000000e+00,0.000000000000000000e+00,1.927635024484003201e-01
0.000000000000000000e+00,0.000000000000000000e+00,1.927635024484003201e-01
0.000000000000000000e+00,0.000000000000000000e+00,1.927635024484003201e-01
0.000000000000000000e+00,0.000000000000000000e+00,1.927635024484003201e-01
0.000000000000000000e+00,0.000000000000000000e+00,1.927635024484003201e-01
0.000000000000000000e+00,0.000000000000000000e+00,1.927635024484003201e-01
0.000000000000000000e+00,0.000000000000000000e+00,1.927635024484003201e-01
0.000000000000000000e+00,0.000000000000000000e+00,1.927635024484003201e-01
0.000000000000000000e+00,0.000000000000000000e+00,1.927635024484003201e-01
0.000000000000000000e+00,0.000000000000000000e+00,1.927635024484003201e-01
0.000000000000000000e+00,0.000000000000000000e+00,1.927635024484003201e-01
0.000000000000000000e+00,0.000000000000000000e+00,1.927635024484003201e-01
0.000000000000000000e+00,0.000000000000000000e+00,1.927635024484003201e-01
0.000000000000000000e+00,0.000000000000000000e+00,1.927635024484003201e-01
0.000000000000000000e+00,0.000000000000000000e+00,1.927635024484003201e-01
0.000000000000000000e+00,0.000000000000000000e+00,1.927635024484003201e-01
0.000000000000000000e+00,0.000000000000000000e+00,1.927635024484003201e-01
0.000000000000000000e+00,0.000000000000000000e+00,1.927635024484003201e-01
0.000000000000000000e+00,0.000000000000000000e+00,1.927635024484003201e-01
0.000000000000000000e+00,0.000000000000000000e+00,1.927635024484003201e-01
0.000000000000000000e+00,0.000000000000000000e+00,1.927635024484003201e-01
0.000000000000000000e+00,0.000000000000000000e+00,1.927635024484003201e-01
0.000000000000000000e+00,0.000000000000000000e+00,1.927635024484003201e-01
0.000000000000000000e+00,0.000000000000000000e+00,1.927635024484003201e-01
0.000000000000000000e+00,0.000000000000000000e+00,1.927635024484003201e-01
0.000000000000000000e+00,0.000000000000000000e+00,1.927635024484003201e-01
0.000000000000000000e+00,0.000000000000000000e+00,1.927635024484003201e-01
0.000000000000000000e+00,0.000000000000000000e+00,1.927635024484003201e-01
0.000000000000000000e+00,0.000000000000000000e+00,1.927635024484003201e-01
0.000000000000000000e+00,0.000000000000000000e+00,1.927635024484003201e-01
