5.569923147581917061e-02,4.572554456049739841e-02,0.000000000000000000e+00
1.420022036604112470e-01,-2.601546503652304443e-01,0.000000000000000000e+00
3.505677197731753014e-01,-5.759019483530785077e-01,0.000000000000000000e+00
4.009111202141873442e-01,-3.686927840485532126e-01,0.000000000000000000e+00
2.534768760655092823e-01,-5.541226182623518876e-02,0.000000000000000000e+00
2.333561690659716192e-02,2.599133843625689097e-02,0.000000000000000000e+00
-1.420784131138708994e-01,2.529347088650226727e-01,0.000000000000000000e+00
3.771944560402916424e-02,3.910741517347062213e-01,0.000000000000000000e+00
1.671739038809172406e-01,5.933497645081714511e-01,0.000000000000000000e+00
9.165880321939919029e-02,7.610905165642155579e-01,0.000000000000000000e+00
2.211132614962872667e-01,7.857582742195162728e-01,0.000000000000000000e+00
1.563860323578432354e-01,4.700109762316682649e-01,0.000000000000000000e+00
1.254774538352315325e-02,1.542636782438201737e-01,0.000000000000000000e+00
-1.240986272420809000e-01,1.323580780956258628e-03,0.000000000000000000e+00
-1.600581989856609266e-01,1.119068384307650953e-02,0.000000000000000000e+00
-1.097147985446489116e-01,-8.543522281163994439e-03,0.000000000000000000e+00
-1.528662846369449324e-01,-3.321127993646462440e-02,0.000000000000000000e+00
-1.924218135548829423e-01,-2.827772840540449667e-02,0.000000000000000000e+00
-2.068056422523149585e-01,-4.307838299858487291e-02,0.000000000000000000e+00
-1.600581989856609266e-01,-3.321127993646462440e-02,0.000000000000000000e+00
-2.283813852984629411e-01,-3.321127993646462440e-02,0.000000000000000000e+00
-2.139975566010309804e-01,-3.321127993646462440e-02,0.000000000000000000e+00
-2.319773424728210076e-01,-5.294548606070512142e-02,0.000000000000000000e+00
-2.319773424728210076e-01,-5.787903759176525609e-02,0.000000000000000000e+00
-2.535530855189689903e-01,-6.281258912282537687e-02,0.000000000000000000e+00
-2.859167000881909781e-01,-8.254679524706588778e-02,0.000000000000000000e+00
-1.960177707292409255e-01,-6.774614065388549766e-02,0.000000000000000000e+00
-3.326641433548450655e-01,-1.121481044334266264e-01,0.000000000000000000e+00
-2.859167000881909781e-01,-1.072145529023665056e-01,0.000000000000000000e+00
-2.895126572625489891e-01,-1.466829651508475274e-01,0.000000000000000000e+00
-3.182803146574130770e-01,-1.318823105576671373e-01,0.000000000000000000e+00
-3.038964859599810331e-01,-1.861513773993285215e-01,0.000000000000000000e+00
-2.751288285651170562e-01,-1.762842743372082799e-01,0.000000000000000000e+00
-3.722196722727830753e-01,-2.058855835235690046e-01,0.000000000000000000e+00
-2.175935137753889637e-01,-1.960184804614487630e-01,0.000000000000000000e+00
-2.247854281241049301e-01,-2.404204442409899056e-01,0.000000000000000000e+00
-2.104015994266729694e-01,-2.157526865856893017e-01,0.000000000000000000e+00
-1.492703274625869214e-01,-2.206862381167494225e-01,0.000000000000000000e+00
-1.133107557190069226e-01,-2.009520319925089116e-01,0.000000000000000000e+00
-4.498756940620488032e-02,-1.910849289303886422e-01,0.000000000000000000e+00
-1.262395483698285949e-02,-1.910849289303886422e-01,0.000000000000000000e+00
4.131540277838716829e-02,-1.417494136197874066e-01,0.000000000000000000e+00
8.087093169632518508e-02,-1.417494136197874066e-01,0.000000000000000000e+00
8.806284604504119318e-02,-8.254679524706588778e-02,0.000000000000000000e+00
1.168305034399052117e-01,-1.022810013713063848e-01,0.000000000000000000e+00
1.024466747424731955e-01,-5.294548606070512142e-02,0.000000000000000000e+00
1.779617754039912458e-01,-1.841062534328424469e-02,0.000000000000000000e+00
1.240224177886212337e-01,0.000000000000000000e+00,0.000000000000000000e+00
9.885071756811519839e-02,-3.321127993646462440e-02,0.000000000000000000e+00
9.525476039375720128e-02,1.119068384307650953e-02,0.000000000000000000e+00
8.087093169632518508e-02,0.000000000000000000e+00,0.000000000000000000e+00
1.312143321373372140e-01,3.092488996731701523e-02,0.000000000000000000e+00
7.367901734760917698e-02,3.092488996731701523e-02,0.000000000000000000e+00
2.333561690659716192e-02,4.079199302943727068e-02,0.000000000000000000e+00
5.210327430146116656e-02,4.572554456049739841e-02,0.000000000000000000e+00
7.367901734760917698e-02,6.052619915367778158e-02,0.000000000000000000e+00
6.289114582453517177e-02,5.065909609155752613e-02,0.000000000000000000e+00
1.973965973223915787e-02,6.052619915367778158e-02,0.000000000000000000e+00
8.087093169632518508e-02,4.572554456049739841e-02,0.000000000000000000e+00
5.210327430146116656e-02,5.559264762261764692e-02,0.000000000000000000e+00
4.850731712710316945e-02,4.572554456049739841e-02,0.000000000000000000e+00
4.131540277838716829e-02,5.559264762261764692e-02,0.000000000000000000e+00
1.614370255788115729e-02,3.585844149837714295e-02,0.000000000000000000e+00
8.446688887068319607e-02,6.052619915367778158e-02,0.000000000000000000e+00
-1.836083313908854061e-03,2.599133843625689097e-02,0.000000000000000000e+00
4.491135995274516540e-02,6.052619915367778158e-02,0.000000000000000000e+00
6.289114582453517177e-02,3.585844149837714295e-02,0.000000000000000000e+00
8.951788209165152665e-03,3.585844149837714295e-02,0.000000000000000000e+00
-1.836083313908854061e-03,6.052619915367778158e-02,0.000000000000000000e+00
3.412348842967116713e-02,4.079199302943727068e-02,0.000000000000000000e+00
-1.262395483698285949e-02,5.065909609155752613e-02,0.000000000000000000e+00
-2.700778353441486701e-02,5.559264762261764692e-02,0.000000000000000000e+00
0.000000000000000000e+00,5.065909609155752613e-02,0.000000000000000000e+00
0.000000000000000000e+00,2.599133843625689097e-02,0.000000000000000000e+00
-1.262395483698285949e-02,5.065909609155752613e-02,0.000000000000000000e+00
-1.981586918569886238e-02,4.079199302943727068e-02,0.000000000000000000e+00
5.569923147581917061e-02,9.999461140215877564e-02,0.000000000000000000e+00
-1.262395483698285949e-02,7.532685374685815782e-02,0.000000000000000000e+00
1.204264606142632227e-01,1.098617144642790450e-01,0.000000000000000000e+00
9.165880321939919029e-02,9.506105987109865485e-02,0.000000000000000000e+00
2.693157408095516250e-02,8.519395680897841328e-02,0.000000000000000000e+00
2.693157408095516250e-02,3.585844149837714295e-02,0.000000000000000000e+00
3.771944560402916424e-02,2.105778690519676324e-02,0.000000000000000000e+00
8.951788209165152665e-03,1.323580780956258628e-03,0.000000000000000000e+00
-2.700778353441486701e-02,2.105778690519676324e-02,0.000000000000000000e+00
-6.656331245235289074e-02,0.000000000000000000e+00,0.000000000000000000e+00
-2.341182636005686643e-02,-2.827772840540449667e-02,0.000000000000000000e+00
-3.419969788313087511e-02,-1.347707381222412043e-02,0.000000000000000000e+00
-6.656331245235289074e-02,2.105778690519676324e-02,0.000000000000000000e+00
-4.858352658056287743e-02,1.119068384307650953e-02,0.000000000000000000e+00
-5.432040488266855725e-03,1.119068384307650953e-02,0.000000000000000000e+00
-1.061188413702909145e-01,-8.543522281163994439e-03,0.000000000000000000e+00
-3.419969788313087511e-02,4.572554456049739841e-02,0.000000000000000000e+00
-8.094714114978489305e-02,1.119068384307650953e-02,0.000000000000000000e+00
-5.432040488266855725e-03,1.323580780956258628e-03,0.000000000000000000e+00
-8.094714114978489305e-02,2.105778690519676324e-02,0.000000000000000000e+00
-5.432040488266855725e-03,2.105778690519676324e-02,0.000000000000000000e+00
-1.061188413702909145e-01,1.323580780956258628e-03,0.000000000000000000e+00
0.000000000000000000e+00,1.612423537413663552e-02,0.000000000000000000e+00
-9.892692702157489248e-02,0.000000000000000000e+00,1.927635024484003201e-01
0.000000000000000000e+00,0.000000000000000000e+00,1.927635024484003201e-01
0.000000000000000000e+00,0.000000000000000000e+00,1.927635024484003201e-01
0.000000000000000000e+00,0.000000000000000000e+00,1.927635024484003201e-01
0.000000000000000000e+00,0.000000000000000000e+00,1.927635024484003201e-01
0.000000000000000000e+00,0.000000000000000000e+00,1.927635024484003201e-01
0.000000000000000000e+00,0.000000000000000000e+00,1.927635024484003201e-01
0.000000000000000000e+00,0.000000000000000000e+00,1.927635024484003201e-01
0.000000000000000000e+00,0.000000000000000000e+00,1.927635024484003201e-01
0.000000000000000000e+00,0.000000000000000000e+00,1.927635024484003201e-01
0.000000000000000000e+00,0.000000000000000000e+00,1.927635024484003201e-01
0.000000000000000000e+00,0.000000000000000000e+00,1.927635024484003201e-01
0.000000000000000000e+00,0.000000000000000000e+00,1.927635024484003201e-01
0.000000000000000000e+00,0.000000000000000000e+00,1.927635024484003201e-01
0.000000000000000000e+00,0.000000000000000000e+00,1.927635024484003201e-01
0.000000000000000000e+00,0.000000000000000000e+00,1.927635024484003201e-01
0.000000000000000000e+00,0.000000000000000000e+00,1.927635024484003201e-01
0.000000000000000000e+00,0.000000000000000000e+00,1.927635024484003201e-01
0.000000000000000000e+00,0.000000000000000000e+00,1.927635024484003201e-01
0.000000000000000000e+00,0.000000000000000000e+00,1.927635024484003201e-01
0.000000000000000000e+00,0.000000000000000000e+00,1.927635024484003201e-01
0.000000000000000000e+00,0.000000000000000000e+00,1.927635024484003201e-01
0.000000000000000000e+00,0.000000000000000000e+00,1.927635024484003201e-01
0.000000000000000000e+00,0.000000000000000000e+00,1.927635024484003201e-01
0.000000000000000000e+00,0.000000000000000000e+00,1.927635024484003201e-01
0.000000000000000000e+00,0.000000000000000000e+00,1.927635024484003201e-01
0.000000000000000000e+00,0.000000000000000000e+00,1.927635024484003201e-01
0.000000000000000000e+00,0.000000000000000000e+00,1.927635024484003201e-01
0.000000000000000000e+00,0.000000000000000000e+00,1.927635024484003201e-01
0.000000000000000000e+00,0.000000000000000000e+00,1.927635024484003201e-01
0.000000000000000000e+00,0.000000000000000000e+00,1.927635024484003201e-01
0.000000000000000000e+00,0.000000000000000000e+00,1.927635024484003201e-01
0.000000000000000000e+00,0.000000000000000000e+00,1.927635024484003201e-01
0.000000000000000000e+00,0.000000000000000000e+00,1.927635024484003201e-01
0.000000000000000000e+00,0.000000000000000000e+00,1.927635024484003201e-01
0.000000000000000000e+00,0.000000000000000000e+00,1.927635024484003201e-01
0.000000000000000000e+00,0.000000000000000000e+00,1.927635024484003201e-01
0.000000000000000000e+00,0.000000000000000000e+00,1.927635024484003201e-01
0.000000000000000000e+00,0.000000000000000000e+00,1.927635024484003201e-01
0.000000000000000000e+00,0.000000000000000000e+00,1.927635024484003201e-01
0.000000000000000000e+00,0.000000000000000000e+00,1.927635024484003201e-01
0.000000000000000000e+00,0.000000000000000000e+00,1.927635024484003201e-01
0.000000000000000000e+00,0.000000000000000000e+00,1.927635024484003201e-01
0.000000000000000000e+00,0.000000000000000000e+00,1.927635024484003201e-01
0.000000000000000000e+00,0.000000000000000000e+00,1.927635024484003201e-01
0.000000000000000000e+00,0.000000000000000000e+00,1.927635024484003201e-01
0.000000000000000000e+00,0.000000000000000000e+00,1.927635024484003201e-01
0.000000000000000000e+00,0.000000000000000000e+00,1.927635024484003201e-01
0.000000000000000000e+00,0.000000000000000000e+00,1.927635024484003201e-01
0.000000000000000000e+00,0.000000000000000000e+00,1.927635024484003201e-01
0.000000000000000000e+00,0.000000000000000000e+00,1.927635024484003201e-01
0.000000000000000000e+00,0.000000000000000000e+00,1.927635024484003201e-01
0.000000000000000000e+00,0.000000000000000000e+00,1.927635024484003201e-01
