-3.060374070877287106e-02,5.637484553218106154e-01,0.000000000000000000e+00
1.973965973223915787e-02,8.153595834058769976e-01,0.000000000000000000e+00
1.204264606142632227e-01,8.646950987164782054e-01,0.000000000000000000e+00
8.951788209165152665e-03,6.032168675702916927e-01,0.000000000000000000e+00
-1.836083313908854061e-03,2.874695695824435737e-01,0.000000000000000000e+00
-1.240986272420809000e-01,5.559264762261764692e-02,0.000000000000000000e+00
-1.420784131138708994e-01,3.585844149837714295e-02,0.000000000000000000e+00
-1.780379848574509538e-01,1.119068384307650953e-02,0.000000000000000000e+00
-1.528662846369449324e-01,0.000000000000000000e+00,0.000000000000000000e+00
-1.816339420318089370e-01,1.119068384307650953e-02,0.000000000000000000e+00
-1.816339420318089370e-01,1.323580780956258628e-03,0.000000000000000000e+00
-1.672501133343769208e-01,0.000000000000000000e+00,0.000000000000000000e+00
-1.348864987651549052e-01,0.000000000000000000e+00,0.000000000000000000e+00
-1.816339420318089370e-01,-8.543522281163994439e-03,0.000000000000000000e+00
-1.420784131138708994e-01,0.000000000000000000e+00,0.000000000000000000e+00
-1.312905415907969220e-01,0.000000000000000000e+00,0.000000000000000000e+00
-1.312905415907969220e-01,1.323580780956258628e-03,0.000000000000000000e+00
-1.384824559395129162e-01,-8.543522281163994439e-03,0.000000000000000000e+00
-1.384824559395129162e-01,-1.841062534328424469e-02,0.000000000000000000e+00
-1.133107557190069226e-01,-2.827772840540449667e-02,0.000000000000000000e+00
-1.492703274625869214e-01,-3.814483146752475212e-02,0.000000000000000000e+00
-1.384824559395129162e-01,-3.814483146752475212e-02,0.000000000000000000e+00
-1.384824559395129162e-01,-7.761324371600575311e-02,0.000000000000000000e+00
-1.348864987651549052e-01,-7.761324371600575311e-02,0.000000000000000000e+00
-1.420784131138708994e-01,-9.734744984024626402e-02,0.000000000000000000e+00
-1.528662846369449324e-01,-1.269487590266070165e-01,0.000000000000000000e+00
-1.456743702882289104e-01,-1.417494136197874066e-01,0.000000000000000000e+00
-1.240986272420809000e-01,-1.565500682129677967e-01,0.000000000000000000e+00
-9.533096984721690925e-02,-1.664171712750880383e-01,0.000000000000000000e+00
-7.735118397542689594e-02,-1.960184804614487630e-01,0.000000000000000000e+00
-4.498756940620488032e-02,-1.762842743372082799e-01,0.000000000000000000e+00
8.951788209165152665e-03,-1.960184804614487630e-01,0.000000000000000000e+00
3.771944560402916424e-02,-1.713507228061481591e-01,0.000000000000000000e+00
5.569923147581917061e-02,-1.565500682129677967e-01,0.000000000000000000e+00
9.525476039375720128e-02,-1.318823105576671373e-01,0.000000000000000000e+00
1.276183749629792308e-01,-1.170816559644867610e-01,0.000000000000000000e+00
1.563860323578432354e-01,-8.748034677812600857e-02,0.000000000000000000e+00
1.240224177886212337e-01,-8.254679524706588778e-02,0.000000000000000000e+00
1.455981608347692302e-01,-5.787903759176525609e-02,0.000000000000000000e+00
1.491941180091272412e-01,-2.827772840540449667e-02,0.000000000000000000e+00
1.204264606142632227e-01,-2.827772840540449667e-02,0.000000000000000000e+00
1.312143321373372140e-01,-8.543522281163994439e-03,0.000000000000000000e+00
7.008306017325117987e-02,-1.841062534328424469e-02,0.000000000000000000e+00
9.525476039375720128e-02,-1.347707381222412043e-02,0.000000000000000000e+00
9.165880321939919029e-02,1.323580780956258628e-03,0.000000000000000000e+00
5.569923147581917061e-02,1.612423537413663552e-02,0.000000000000000000e+00
8.806284604504119318e-02,0.000000000000000000e+00,0.000000000000000000e+00
5.210327430146116656e-02,1.119068384307650953e-02,0.000000000000000000e+00
9.885071756811519839e-02,3.092488996731701523e-02,0.000000000000000000e+00
1.168305034399052117e-01,2.105778690519676324e-02,0.000000000000000000e+00
9.885071756811519839e-02,1.119068384307650953e-02,0.000000000000000000e+00
1.420022036604112470e-01,5.065909609155752613e-02,0.000000000000000000e+00
1.420022036604112470e-01,1.119068384307650953e-02,0.000000000000000000e+00
1.384062464860532360e-01,3.585844149837714295e-02,0.000000000000000000e+00
1.455981608347692302e-01,2.105778690519676324e-02,0.000000000000000000e+00
1.671739038809172406e-01,4.572554456049739841e-02,0.000000000000000000e+00
1.779617754039912458e-01,2.599133843625689097e-02,0.000000000000000000e+00
1.707698610552752516e-01,3.585844149837714295e-02,0.000000000000000000e+00
1.707698610552752516e-01,1.612423537413663552e-02,0.000000000000000000e+00
1.959415612757812730e-01,3.585844149837714295e-02,0.000000000000000000e+00
1.671739038809172406e-01,1.119068384307650953e-02,0.000000000000000000e+00
1.599819895322012464e-01,0.000000000000000000e+00,0.000000000000000000e+00
1.779617754039912458e-01,1.119068384307650953e-02,0.000000000000000000e+00
1.779617754039912458e-01,2.105778690519676324e-02,0.000000000000000000e+00
1.743658182296332626e-01,1.323580780956258628e-03,0.000000000000000000e+00
1.635779467065592574e-01,-1.347707381222412043e-02,0.000000000000000000e+00
1.635779467065592574e-01,1.612423537413663552e-02,0.000000000000000000e+00
1.563860323578432354e-01,1.119068384307650953e-02,0.000000000000000000e+00
1.815577325783492568e-01,2.599133843625689097e-02,0.000000000000000000e+00
2.462849617167932603e-01,6.052619915367778158e-02,0.000000000000000000e+00
2.175173043219292557e-01,4.572554456049739841e-02,0.000000000000000000e+00
2.570728332398672933e-01,3.585844149837714295e-02,0.000000000000000000e+00
1.851536897527072678e-01,1.612423537413663552e-02,0.000000000000000000e+00
1.563860323578432354e-01,1.323580780956258628e-03,0.000000000000000000e+00
1.527900751834852244e-01,-3.814483146752475212e-02,0.000000000000000000e+00
1.204264606142632227e-01,-2.334417687434437241e-02,0.000000000000000000e+00
1.348102893116952250e-01,-3.321127993646462440e-02,0.000000000000000000e+00
1.168305034399052117e-01,-6.281258912282537687e-02,0.000000000000000000e+00
1.096385890911892036e-01,-4.307838299858487291e-02,0.000000000000000000e+00
1.060426319168311926e-01,-2.827772840540449667e-02,0.000000000000000000e+00
9.885071756811519839e-02,-2.334417687434437241e-02,0.000000000000000000e+00
1.168305034399052117e-01,-1.347707381222412043e-02,0.000000000000000000e+00
1.132345462655472146e-01,-2.334417687434437241e-02,0.000000000000000000e+00
9.525476039375720128e-02,-1.841062534328424469e-02,0.000000000000000000e+00
1.024466747424731955e-01,-1.347707381222412043e-02,0.000000000000000000e+00
1.132345462655472146e-01,-1.347707381222412043e-02,0.000000000000000000e+00
1.312143321373372140e-01,-1.841062534328424469e-02,0.000000000000000000e+00
9.885071756811519839e-02,-3.609970750103867580e-03,0.000000000000000000e+00
1.204264606142632227e-01,-1.841062534328424469e-02,0.000000000000000000e+00
1.096385890911892036e-01,-1.841062534328424469e-02,0.000000000000000000e+00
9.165880321939919029e-02,0.000000000000000000e+00,0.000000000000000000e+00
1.312143321373372140e-01,4.572554456049739841e-02,0.000000000000000000e+00
1.851536897527072678e-01,-2.334417687434437241e-02,0.000000000000000000e+00
3.469717625988172904e-01,-2.058855835235690046e-01,0.000000000000000000e+00
5.735170645833713721e-01,-4.278954024212747176e-01,0.000000000000000000e+00
5.699211074090134721e-01,-1.713507228061481591e-01,0.000000000000000000e+00
4.620423921782733645e-01,1.419297994161698717e-01,0.000000000000000000e+00
2.319011330193612441e-01,1.612423537413663552e-02,0.000000000000000000e+00
0.000000000000000000e+00,1.986656420233613163e-01,1.927635024484003201e-01
0.000000000000000000e+00,0.000000000000000000e+00,1.927635024484003201e-01
0.000000000000000000e+00,0.000000000000000000e+00,1.927635024484003201e-01
0.000000000000000000e+00,0.000000000000000000e+00,1.927635024484003201e-01
0.000000000000000000e+00,0.000000000000000000e+00,1.927635024484003201e-01
0.000000000000000000e+00,0.000000000000000000e+00,1.927635024484003201e-01
0.000000000000000000e+00,0.000000000000000000e+00,1.927635024484003201e-01
0.000000000000000000e+00,0.000000000000000000e+00,1.927635024484003201e-01
0.000000000000000000e+00,0.000000000000000000e+00,1.927635024484003201e-01
0.000000000000000000e+00,0.000000000000000000e+00,1.927635024484003201e-01
0.000000000000000000e+00,0.000000000000000000e+00,1.927635024484003201e-01
0.000000000000000000e+00,0.000000000000000000e+00,1.927635024484003201e-01
0.000000000000000000e+00,0.000000000000000000e+00,1.927635024484003201e-01
0.000000000000000000e+00,0.000000000000000000e+00,1.927635024484003201e-01
0.000000000000000000e+00,0.000000000000000000e+00,1.927635024484003201e-01
0.000000000000000000e+00,0.000000000000000000e+00,1.927635024484003201e-01
0.000000000000000000e+00,0.000000000000000000e+00,1.927635024484003201e-01
0.000000000000000000e+00,0.000000000000000000e+00,1.927635024484003201e-01
0.000000000000000000e+00,0.000000000000000000e+00,1.927635024484003201e-01
0.000000000000000000e+00,0.000000000000000000e+00,1.927635024484003201e-01
0.000000000000000000e+00,0.000000000000000000e+00,1.927635024484003201e-01
0.000000000000000000e+00,0.000000000000000000e+00,1.927635024484003201e-01
0.000000000000000000e+00,0.000000000000000000e+00,1.927635024484003201e-01
0.000000000000000000e+00,0.000000000000000000e+00,1.927635024484003201e-01
0.000000000000000000e+00,0.000000000000000000e+00,1.927635024484003201e-01
0.000000000000000000e+00,0.000000000000000000e+00,1.927635024484003201e-01
0.000000000000000000e+00,0.000000000000000000e+00,1.927635024484003201e-01
0.000000000000000000e+00,0.000000000000000000e+00,1.927635024484003201e-01
0.000000000000000000e+00,0.000000000000000000e+00,1.927635024484003201e-01
0.000000000000000000e+00,0.000000000000000000e+00,1.927635024484003201e-01
0.000000000000000000e+00,0.000000000000000000e+00,1.927635024484003201e-01
0.000000000000000000e+00,0.000000000000000000e+00,1.927635024484003201e-01
0.000000000000000000e+00,0.000000000000000000e+00,1.927635024484003201e-01
0.000000000000000000e+00,0.000000000000000000e+00,1.927635024484003201e-01
0.000000000000000000e+00,0.000000000000000000e+00,1.927635024484003201e-01
0.000000000000000000e+00,0.000000000000000000e+00,1.927635024484003201e-01
0.000000000000000000e+00,0.000000000000000000e+00,1.927635024484003201e-01
0.000000000000000000e+00,0.000000000000000000e+00,1.927635024484003201e-01
0.000000000000000000e+00,0.000000000000000000e+00,1.927635024484003201e-01
0.000000000000000000e+00,0.000000000000000000e+00,1.927635024484003201e-01
0.000000000000000000e+00,0.000000000000000000e+00,1.927635024484003201e-01
0.000000000000000000e+00,0.000000000000000000e+00,1.927635024484003201e-01
0.000000000000000000e+00,0.000000000000000000e+00,1.927635024484003201e-01
0.000000000000000000e+00,0.000000000000000000e+00,1.927635024484003201e-01
0.000000000000000000e+00,0.000000000000000000e+00,1.927635024484003201e-01
0.000000000000000000e+00,0.000000000000000000e+00,1.927635024484003201e-01
0.000000000000000000e+00,0.000000000000000000e+00,1.927635024484003201e-01
0.000000000000000000e+00,0.000000000000000000e+00,1.927635024484003201e-01
0.000000000000000000e+00,0.000000000000000000e+00,1.927635024484003201e-01
0.000000000000000000e+00,0.000000000000000000e+00,1.927635024484003201e-01
0.000000000000000000e+00,0.000000000000000000e+00,1.927635024484003201e-01
0.000000000000000000e+00,0.000000000000000000e+00,1.927635024484003201e-01
0.000000000000000000e+00,0.000000000000000000e+00,1.927635024484003201e-01
0.000000000000000000e+00,0.000000000000000000e+00,1.927635024484003201e-01
