1.348102893116952250e-01,3.910741517347062213e-01,0.000000000000000000e+00
1.563860323578432354e-01,5.390806976665100114e-01,0.000000000000000000e+00
9.525476039375720128e-02,7.462898619710353065e-01,0.000000000000000000e+00
2.139213471475712447e-01,6.969543466604339876e-01,0.000000000000000000e+00
1.024466747424731955e-01,3.812070486725859797e-01,0.000000000000000000e+00
-3.419969788313087511e-02,6.545975068473790237e-02,0.000000000000000000e+00
-1.205026700677229168e-01,1.119068384307650953e-02,0.000000000000000000e+00
-9.892692702157489248e-02,1.119068384307650953e-02,0.000000000000000000e+00
-1.240986272420809000e-01,-3.609970750103867580e-03,0.000000000000000000e+00
-1.240986272420809000e-01,-2.334417687434437241e-02,0.000000000000000000e+00
-1.420784131138708994e-01,-3.609970750103867580e-03,0.000000000000000000e+00
-1.636541561600189376e-01,-2.827772840540449667e-02,0.000000000000000000e+00
-1.492703274625869214e-01,-2.827772840540449667e-02,0.000000000000000000e+00
-1.744420276830929428e-01,-2.334417687434437241e-02,0.000000000000000000e+00
-1.996137279035989365e-01,-2.827772840540449667e-02,0.000000000000000000e+00
-2.068056422523149585e-01,-4.801193452964499370e-02,0.000000000000000000e+00
-2.211894709497469746e-01,-3.321127993646462440e-02,0.000000000000000000e+00
-2.463611711702529683e-01,-6.774614065388549766e-02,0.000000000000000000e+00
-2.391692568215370018e-01,-6.281258912282537687e-02,0.000000000000000000e+00
-2.571490426933270013e-01,-6.281258912282537687e-02,0.000000000000000000e+00
-2.715328713907590452e-01,-7.267969218494563233e-02,0.000000000000000000e+00
-2.931086144369070001e-01,-1.022810013713063848e-01,0.000000000000000000e+00
-2.895126572625489891e-01,-9.241389830918614323e-02,0.000000000000000000e+00
-2.751288285651170562e-01,-1.220152074955468957e-01,0.000000000000000000e+00
-3.218762718317710325e-01,-1.417494136197874066e-01,0.000000000000000000e+00
-2.787247857394750117e-01,-1.368158620887272581e-01,0.000000000000000000e+00
-2.715328713907590452e-01,-1.565500682129677967e-01,0.000000000000000000e+00
-2.463611711702529683e-01,-1.812178258682684007e-01,0.000000000000000000e+00
-2.535530855189689903e-01,-1.762842743372082799e-01,0.000000000000000000e+00
-1.816339420318089370e-01,-1.910849289303886422e-01,0.000000000000000000e+00
-1.780379848574509538e-01,-1.812178258682684007e-01,0.000000000000000000e+00
-1.097147985446489116e-01,-1.910849289303886422e-01,0.000000000000000000e+00
-5.937139810363688264e-02,-1.910849289303886422e-01,0.000000000000000000e+00
1.759873860449148036e-03,-1.664171712750880383e-01,0.000000000000000000e+00
4.850731712710316945e-02,-1.220152074955468957e-01,0.000000000000000000e+00
1.132345462655472146e-01,-1.121481044334266264e-01,0.000000000000000000e+00
1.168305034399052117e-01,-8.748034677812600857e-02,0.000000000000000000e+00
1.491941180091272412e-01,-4.307838299858487291e-02,0.000000000000000000e+00
1.851536897527072678e-01,-1.347707381222412043e-02,0.000000000000000000e+00
1.851536897527072678e-01,0.000000000000000000e+00,0.000000000000000000e+00
1.743658182296332626e-01,2.599133843625689097e-02,0.000000000000000000e+00
1.887496469270652510e-01,4.572554456049739841e-02,0.000000000000000000e+00
1.635779467065592574e-01,4.572554456049739841e-02,0.000000000000000000e+00
1.455981608347692302e-01,6.052619915367778158e-02,0.000000000000000000e+00
1.348102893116952250e-01,5.559264762261764692e-02,0.000000000000000000e+00
1.132345462655472146e-01,7.532685374685815782e-02,0.000000000000000000e+00
1.096385890911892036e-01,7.532685374685815782e-02,0.000000000000000000e+00
9.885071756811519839e-02,6.545975068473790237e-02,0.000000000000000000e+00
7.727497452196718797e-02,6.052619915367778158e-02,0.000000000000000000e+00
8.806284604504119318e-02,7.532685374685815782e-02,0.000000000000000000e+00
9.165880321939919029e-02,8.026040527791827861e-02,0.000000000000000000e+00
6.648710299889318276e-02,9.506105987109865485e-02,0.000000000000000000e+00
7.008306017325117987e-02,6.545975068473790237e-02,0.000000000000000000e+00
5.569923147581917061e-02,5.559264762261764692e-02,0.000000000000000000e+00
8.087093169632518508e-02,9.012750834003853406e-02,0.000000000000000000e+00
2.693157408095516250e-02,7.039330221579802316e-02,0.000000000000000000e+00
4.131540277838716829e-02,5.559264762261764692e-02,0.000000000000000000e+00
5.210327430146116656e-02,5.065909609155752613e-02,0.000000000000000000e+00
3.052753125531316308e-02,6.052619915367778158e-02,0.000000000000000000e+00
1.973965973223915787e-02,4.572554456049739841e-02,0.000000000000000000e+00
1.973965973223915787e-02,4.572554456049739841e-02,0.000000000000000000e+00
-5.432040488266855725e-03,5.065909609155752613e-02,0.000000000000000000e+00
-5.432040488266855725e-03,3.092488996731701523e-02,0.000000000000000000e+00
3.412348842967116713e-02,2.599133843625689097e-02,0.000000000000000000e+00
-2.700778353441486701e-02,3.585844149837714295e-02,0.000000000000000000e+00
-1.262395483698285949e-02,3.585844149837714295e-02,0.000000000000000000e+00
-5.432040488266855725e-03,2.105778690519676324e-02,0.000000000000000000e+00
-1.981586918569886238e-02,3.585844149837714295e-02,0.000000000000000000e+00
-1.262395483698285949e-02,1.612423537413663552e-02,0.000000000000000000e+00
-2.341182636005686643e-02,5.559264762261764692e-02,0.000000000000000000e+00
1.254774538352315325e-02,8.026040527791827861e-02,0.000000000000000000e+00
3.771944560402916424e-02,9.012750834003853406e-02,0.000000000000000000e+00
3.412348842967116713e-02,8.519395680897841328e-02,0.000000000000000000e+00
4.491135995274516540e-02,9.506105987109865485e-02,0.000000000000000000e+00
8.951788209165152665e-03,5.065909609155752613e-02,0.000000000000000000e+00
-1.981586918569886238e-02,0.000000000000000000e+00,0.000000000000000000e+00
-4.498756940620488032e-02,0.000000000000000000e+00,0.000000000000000000e+00
-5.937139810363688264e-02,2.105778690519676324e-02,0.000000000000000000e+00
-6.296735527799489363e-02,1.119068384307650953e-02,0.000000000000000000e+00
-8.094714114978489305e-02,0.000000000000000000e+00,0.000000000000000000e+00
-7.015926962671088785e-02,-2.334417687434437241e-02,0.000000000000000000e+00
-9.173501267285891214e-02,2.105778690519676324e-02,0.000000000000000000e+00
-3.419969788313087511e-02,3.585844149837714295e-02,0.000000000000000000e+00
-8.094714114978489305e-02,1.119068384307650953e-02,0.000000000000000000e+00
-6.296735527799489363e-02,2.105778690519676324e-02,0.000000000000000000e+00
-4.858352658056287743e-02,2.599133843625689097e-02,0.000000000000000000e+00
-5.937139810363688264e-02,2.105778690519676324e-02,0.000000000000000000e+00
-7.375522680106889883e-02,1.612423537413663552e-02,0.000000000000000000e+00
-3.419969788313087511e-02,4.572554456049739841e-02,0.000000000000000000e+00
-5.937139810363688264e-02,1.612423537413663552e-02,0.000000000000000000e+00
-4.858352658056287743e-02,2.599133843625689097e-02,0.000000000000000000e+00
-5.937139810363688264e-02,3.092488996731701523e-02,0.000000000000000000e+00
-3.060374070877287106e-02,9.012750834003853406e-02,0.000000000000000000e+00
2.333561690659716192e-02,8.026040527791827861e-02,0.000000000000000000e+00
5.569923147581917061e-02,0.000000000000000000e+00,0.000000000000000000e+00
2.354970901937192551e-01,-3.094901656758316522e-01,0.000000000000000000e+00
4.638403707654523700e-01,-4.969651238561164641e-01,0.000000000000000000e+00
2.354970901937192551e-01,-1.836846016337984611e-01,0.000000000000000000e+00
2.930324049834472921e-01,1.295959205885195420e-01,0.000000000000000000e+00
6.289114582453517177e-02,2.035991935544214648e-01,0.000000000000000000e+00
-1.262395483698285949e-02,3.861406002036461005e-01,1.927635024484003201e-01
0.000000000000000000e+00,0.000000000000000000e+00,1.927635024484003201e-01
0.000000000000000000e+00,0.000000000000000000e+00,1.927635024484003201e-01
0.000000000000000000e+00,0.000000000000000000e+00,1.927635024484003201e-01
0.000000000000000000e+00,0.000000000000000000e+00,1.927635024484003201e-01
0.000000000000000000e+00,0.000000000000000000e+00,1.927635024484003201e-01
0.000000000000000000e+00,0.000000000000000000e+00,1.927635024484003201e-01
0.000000000000000000e+00,0.000000000000000000e+00,1.927635024484003201e-01
0.000000000000000000e+00,0.000000000000000000e+00,1.927635024484003201e-01
0.000000000000000000e+00,0.000000000000000000e+00,1.927635024484003201e-01
0.000000000000000000e+00,0.000000000000000000e+00,1.927635024484003201e-01
0.000000000000000000e+00,0.000000000000000000e+00,1.927635024484003201e-01
0.000000000000000000e+00,0.000000000000000000e+00,1.927635024484003201e-01
0.000000000000000000e+00,0.000000000000000000e+00,1.927635024484003201e-01
0.000000000000000000e+00,0.000000000000000000e+00,1.927635024484003201e-01
0.000000000000000000e+00,0.000000000000000000e+00,1.927635024484003201e-01
0.000000000000000000e+00,0.000000000000000000e+00,1.927635024484003201e-01
0.000000000000000000e+00,0.000000000000000000e+00,1.927635024484003201e-01
0.000000000000000000e+00,0.000000000000000000e+00,1.927635024484003201e-01
0.000000000000000000e+00,0.000000000000000000e+00,1.927635024484003201e-01
0.000000000000000000e+00,0.000000000000000000e+00,1.927635024484003201e-01
0.000000000000000000e+00,0.000000000000000000e+00,1.927635024484003201e-01
0.000000000000000000e+00,0.000000000000000000e+00,1.927635024484003201e-01
0.000000000000000000e+00,0.000000000000000000e+00,1.927635024484003201e-01
0.000000000000000000e+00,0.000000000000000000e+00,1.927635024484003201e-01
0.000000000000000000e+00,0.000000000000000000e+00,1.927635024484003201e-01
0.000000000000000000e+00,0.000000000000000000e+00,1.927635024484003201e-01
0.000000000000000000e+00,0.000000000000000000e+00,1.927635024484003201e-01
0.000000000000000000e+00,0.000000000000000000e+00,1.927635024484003201e-01
0.000000000000000000e+00,0.000000000000000000e+00,1.927635024484003201e-01
0.000000000000000000e+00,0.000000000000000000e+00,1.927635024484003201e-01
0.000000000000000000e+00,0.000000000000000000e+00,1.927635024484003201e-01
0.000000000000000000e+00,0.000000000000000000e+00,1.927635024484003201e-01
0.000000000000000000e+00,0.000000000000000000e+00,1.927635024484003201e-01
0.000000000000000000e+00,0.000000000000000000e+00,1.927635024484003201e-01
0.000000000000000000e+00,0.000000000000000000e+00,1.927635024484003201e-01
0.000000000000000000e+00,0.000000000000000000e+00,1.927635024484003201e-01
0.000000000000000000e+00,0.000000000000000000e+00,1.927635024484003201e-01
0.000000000000000000e+00,0.000000000000000000e+00,1.927635024484003201e-01
0.000000000000000000e+00,0.000000000000000000e+00,1.927635024484003201e-01
0.000000000000000000e+00,0.000000000000000000e+00,1.927635024484003201e-01
0.000000000000000000e+00,0.000000000000000000e+00,1.927635024484003201e-01
0.000000000000000000e+00,0.000000000000000000e+00,1.927635024484003201e-01
0.000000000000000000e+00,0.000000000000000000e+00,1.927635024484003201e-01
0.000000000000000000e+00,0.000000000000000000e+00,1.927635024484003201e-01
0.000000000000000000e+00,0.000000000000000000e+00,1.927635024484003201e-01
0.000000000000000000e+00,0.000000000000000000e+00,1.927635024484003201e-01
0.000000000000000000e+00,0.000000000000000000e+00,1.927635024484003201e-01
0.000000000000000000e+00,0.000000000000000000e+00,1.927635024484003201e-01
0.000000000000000000e+00,0.000000000000000000e+00,1.927635024484003201e-01
0.000000000000000000e+00,0.000000000000000000e+00,1.927635024484003201e-01
0.000000000000000000e+00,0.000000000000000000e+00,1.927635024484003201e-01
