2.498809188911512713e-01,1.147952659953391658e-01,0.000000000000000000e+00
3.289919767270273465e-01,7.039330221579802316e-02,0.000000000000000000e+00
4.872140923987794414e-01,-1.910849289303886422e-01,0.000000000000000000e+00
7.029715228602595456e-01,-2.601546503652304443e-01,0.000000000000000000e+00
4.728302637013473975e-01,5.312587185708758653e-02,0.000000000000000000e+00
2.930324049834472921e-01,1.098617144642790450e-01,0.000000000000000000e+00
6.289114582453517177e-02,2.677353634582030906e-01,0.000000000000000000e+00
-9.027997662624857172e-03,4.009412547968265184e-01,0.000000000000000000e+00
-1.836083313908854061e-03,5.686820068528707361e-01,0.000000000000000000e+00
2.693157408095516250e-02,7.561569650331554371e-01,0.000000000000000000e+00
1.254774538352315325e-02,8.104260318748169878e-01,0.000000000000000000e+00
-5.432040488266855725e-03,4.946787338869688688e-01,0.000000000000000000e+00
-6.656331245235289074e-02,1.789314358991208054e-01,0.000000000000000000e+00
-1.133107557190069226e-01,-3.609970750103867580e-03,0.000000000000000000e+00
-1.744420276830929428e-01,-2.827772840540449667e-02,0.000000000000000000e+00
-1.924218135548829423e-01,-4.801193452964499370e-02,0.000000000000000000e+00
-2.283813852984629411e-01,-4.307838299858487291e-02,0.000000000000000000e+00
-1.888258563805249590e-01,-3.814483146752475212e-02,0.000000000000000000e+00
-1.996137279035989365e-01,-4.307838299858487291e-02,0.000000000000000000e+00
-1.744420276830929428e-01,-6.281258912282537687e-02,0.000000000000000000e+00
-2.283813852984629411e-01,-7.267969218494563233e-02,0.000000000000000000e+00
-2.499571283446109793e-01,-8.748034677812600857e-02,0.000000000000000000e+00
-2.607449998676850123e-01,-1.269487590266070165e-01,0.000000000000000000e+00
-2.751288285651170562e-01,-1.516165166819076482e-01,0.000000000000000000e+00
-2.607449998676850123e-01,-2.009520319925089116e-01,0.000000000000000000e+00
-3.542398864009930759e-01,-2.305533411788696641e-01,0.000000000000000000e+00
-2.895126572625489891e-01,-1.861513773993285215e-01,0.000000000000000000e+00
-2.859167000881909781e-01,-2.798888564894709274e-01,0.000000000000000000e+00
-3.578358435753510314e-01,-2.749553049584108066e-01,0.000000000000000000e+00
-2.535530855189689903e-01,-3.242908202690120700e-01,0.000000000000000000e+00
-2.427652139958950128e-01,-3.045566141447715869e-01,0.000000000000000000e+00
-1.888258563805249590e-01,-3.193572687379518937e-01,0.000000000000000000e+00
-1.133107557190069226e-01,-2.996230626137114106e-01,0.000000000000000000e+00
-1.169067128933649058e-01,-2.650882018962905651e-01,0.000000000000000000e+00
0.000000000000000000e+00,-2.009520319925089116e-01,0.000000000000000000e+00
3.771944560402916424e-02,-2.206862381167494225e-01,0.000000000000000000e+00
1.759873860449148036e-03,-1.565500682129677967e-01,0.000000000000000000e+00
4.491135995274516540e-02,-1.022810013713063848e-01,0.000000000000000000e+00
1.420022036604112470e-01,-5.294548606070512142e-02,0.000000000000000000e+00
1.348102893116952250e-01,-3.814483146752475212e-02,0.000000000000000000e+00
9.885071756811519839e-02,-3.609970750103867580e-03,0.000000000000000000e+00
1.168305034399052117e-01,3.092488996731701523e-02,0.000000000000000000e+00
1.024466747424731955e-01,3.585844149837714295e-02,0.000000000000000000e+00
1.060426319168311926e-01,4.572554456049739841e-02,0.000000000000000000e+00
9.525476039375720128e-02,4.572554456049739841e-02,0.000000000000000000e+00
1.024466747424731955e-01,6.052619915367778158e-02,0.000000000000000000e+00
1.254774538352315325e-02,7.039330221579802316e-02,0.000000000000000000e+00
5.210327430146116656e-02,8.026040527791827861e-02,0.000000000000000000e+00
7.008306017325117987e-02,8.026040527791827861e-02,0.000000000000000000e+00
7.367901734760917698e-02,9.506105987109865485e-02,0.000000000000000000e+00
6.289114582453517177e-02,1.443965751816999321e-01,0.000000000000000000e+00
1.420022036604112470e-01,1.887985389612410747e-01,0.000000000000000000e+00
9.885071756811519839e-02,2.381340542718423381e-01,0.000000000000000000e+00
1.815577325783492568e-01,2.332005027407821895e-01,0.000000000000000000e+00
2.426890045424352493e-01,2.183998481476017994e-01,0.000000000000000000e+00
2.894364478090892812e-01,1.443965751816999321e-01,0.000000000000000000e+00
2.534768760655092823e-01,1.394630236506397836e-01,0.000000000000000000e+00
2.606687904142253043e-01,1.197288175263992865e-01,0.000000000000000000e+00
2.103253899732132892e-01,1.049281629332189242e-01,0.000000000000000000e+00
1.455981608347692302e-01,1.147952659953391658e-01,0.000000000000000000e+00
1.635779467065592574e-01,4.572554456049739841e-02,0.000000000000000000e+00
1.312143321373372140e-01,1.049281629332189242e-01,0.000000000000000000e+00
1.887496469270652510e-01,6.052619915367778158e-02,0.000000000000000000e+00
1.096385890911892036e-01,8.519395680897841328e-02,0.000000000000000000e+00
1.312143321373372140e-01,4.572554456049739841e-02,0.000000000000000000e+00
9.165880321939919029e-02,5.065909609155752613e-02,0.000000000000000000e+00
8.087093169632518508e-02,2.599133843625689097e-02,0.000000000000000000e+00
7.727497452196718797e-02,3.585844149837714295e-02,0.000000000000000000e+00
8.951788209165152665e-03,2.599133843625689097e-02,0.000000000000000000e+00
5.210327430146116656e-02,1.612423537413663552e-02,0.000000000000000000e+00
6.648710299889318276e-02,8.519395680897841328e-02,1.927635024484003201e-01
0.000000000000000000e+00,0.000000000000000000e+00,1.927635024484003201e-01
0.000000000000000000e+00,0.000000000000000000e+00,1.927635024484003201e-01
0.000000000000000000e+00,0.000000000000000000e+00,1.927635024484003201e-01
0.000000000000000000e+00,0.000000000000000000e+00,1.927635024484003201e-01
0.000000000000000000e+00,0.000000000000000000e+00,1.927635024484003201e-01
0.000000000000000000e+00,0.000000000000000000e+00,1.927635024484003201e-01
0.000000000000000000e+00,0.000000000000000000e+00,1.927635024484003201e-01
0.000000000000000000e+00,0.000000000000000000e+00,1.927635024484003201e-01
0.000000000000000000e+00,0.000000000000000000e+00,1.927635024484003201e-01
0.000000000000000000e+00,0.000000000000000000e+00,1.927635024484003201e-01
0.000000000000000000e+00,0.000000000000000000e+00,1.927635024484003201e-01
0.000000000000000000e+00,0.000000000000000000e+00,1.927635024484003201e-01
0.000000000000000000e+00,0.000000000000000000e+00,1.927635024484003201e-01
0.000000000000000000e+00,0.000000000000000000e+00,1.927635024484003201e-01
0.000000000000000000e+00,0.000000000000000000e+00,1.927635024484003201e-01
0.000000000000000000e+00,0.000000000000000000e+00,1.927635024484003201e-01
0.000000000000000000e+00,0.000000000000000000e+00,1.927635024484003201e-01
0.000000000000000000e+00,0.000000000000000000e+00,1.927635024484003201e-01
0.000000000000000000e+00,0.000000000000000000e+00,1.927635024484003201e-01
0.000000000000000000e+00,0.000000000000000000e+00,1.927635024484003201e-01
0.000000000000000000e+00,0.000000000000000000e+00,1.927635024484003201e-01
0.000000000000000000e+00,0.000000000000000000e+00,1.927635024484003201e-01
0.000000000000000000e+00,0.000000000000000000e+00,1.927635024484003201e-01
0.000000000000000000e+00,0.000000000000000000e+00,1.927635024484003201e-01
0.000000000000000000e+00,0.000000000000000000e+00,1.927635024484003201e-01
0.000000000000000000e+00,0.000000000000000000e+00,1.927635024484003201e-01
0.000000000000000000e+00,0.000000000000000000e+00,1.927635024484003201e-01
0.000000000000000000e+00,0.000000000000000000e+00,1.927635024484003201e-01
0.000000000000000000e+00,0.000000000000000000e+00,1.927635024484003201e-01
0.000000000000000000e+00,0.000000000000000000e+00,1.927635024484003201e-01
0.000000000000000000e+00,0.000000000000000000e+00,1.927635024484003201e-01
0.000000000000000000e+00,0.000000000000000000e+00,1.927635024484003201e-01
0.000000000000000000e+00,0.000000000000000000e+00,1.927635024484003201e-01
0.000000000000000000e+00,0.000000000000000000e+00,1.927635024484003201e-01
0.000000000000000000e+00,0.000000000000000000e+00,1.927635024484003201e-01
0.000000000000000000e+00,0.000000000000000000e+00,1.927635024484003201e-01
0.000000000000000000e+00,0.000000000000000000e+00,1.927635024484003201e-01
0.000000000000000000e+00,0.000000000000000000e+00,1.927635024484003201e-01
0.000000000000000000e+00,0.000000000000000000e+00,1.927635024484003201e-01
0.000000000000000000e+00,0.000000000000000000e+00,1.927635024484003201e-01
0.000000000000000000e+00,0.000000000000000000e+00,1.927635024484003201e-01
0.000000000000000000e+00,0.000000000000000000e+00,1.927635024484003201e-01
0.000000000000000000e+00,0.000000000000000000e+00,1.927635024484003201e-01
0.000000000000000000e+00,0.000000000000000000e+00,1.927635024484003201e-01
0.000000000000000000e+00,0.000000000000000000e+00,1.927635024484003201e-01
0.000000000000000000e+00,0.000000000000000000e+00,1.927635024484003201e-01
0.000000000000000000e+00,0.000000000000000000e+00,1.927635024484003201e-01
0.000000000000000000e+00,0.000000000000000000e+00,1.927635024484003201e-01
0.000000000000000000e+00,0.000000000000000000e+00,1.927635024484003201e-01
0.000000000000000000e+00,0.000000000000000000e+00,1.927635024484003201e-01
0.000000000000000000e+00,0.000000000000000000e+00,1.927635024484003201e-01
0.000000000000000000e+00,0.000000000000000000e+00,1.927635024484003201e-01
0.000000000000000000e+00,0.000000000000000000e+00,1.927635024484003201e-01
0.000000000000000000e+00,0.000000000000000000e+00,1.927635024484003201e-01
0.000000000000000000e+00,0.000000000000000000e+00,1.927635024484003201e-01
0.000000000000000000e+00,0.000000000000000000e+00,1.927635024484003201e-01
0.000000000000000000e+00,0.000000000000000000e+00,1.927635024484003201e-01
0.000000000000000000e+00,0.000000000000000000e+00,1.927635024484003201e-01
0.000000000000000000e+00,0.000000000000000000e+00,1.927635024484003201e-01
0.000000000000000000e+00,0.000000000000000000e+00,1.927635024484003201e-01
0.000000000000000000e+00,0.000000000000000000e+00,1.927635024484003201e-01
0.000000000000000000e+00,0.000000000000000000e+00,1.927635024484003201e-01
0.000000000000000000e+00,0.000000000000000000e+00,1.927635024484003201e-01
0.000000000000000000e+00,0.000000000000000000e+00,1.927635024484003201e-01
0.000000000000000000e+00,0.000000000000000000e+00,1.927635024484003201e-01
0.000000000000000000e+00,0.000000000000000000e+00,1.927635024484003201e-01
0.000000000000000000e+00,0.000000000000000000e+00,1.927635024484003201e-01
0.000000000000000000e+00,0.000000000000000000e+00,1.927635024484003201e-01
0.000000000000000000e+00,0.000000000000000000e+00,1.927635024484003201e-01
0.000000000000000000e+00,0.000000000000000000e+00,1.927635024484003201e-01
0.000000000000000000e+00,0.000000000000000000e+00,1.927635024484003201e-01
0.000000000000000000e+00,0.000000000000000000e+00,1.927635024484003201e-01
0.000000000000000000e+00,0.000000000000000000e+00,1.927635024484003201e-01
0.000000000000000000e+00,0.000000000000000000e+00,1.927635024484003201e-01
0.000000000000000000e+00,0.000000000000000000e+00,1.927635024484003201e-01
0.000000000000000000e+00,0.000000000000000000e+00,1.927635024484003201e-01
0.000000000000000000e+00,0.000000000000000000e+00,1.927635024484003201e-01
0.000000000000000000e+00,0.000000000000000000e+00,1.927635024484003201e-01
0.000000000000000000e+00,0.000000000000000000e+00,1.927635024484003201e-01
0.000000000000000000e+00,0.000000000000000000e+00,1.927635024484003201e-01
0.000000000000000000e+00,0.000000000000000000e+00,1.927635024484003201e-01
