1.312143321373372140e-01,-6.774614065388549766e-02,0.000000000000000000e+00
3.595576127090703289e-01,-3.834934386417335750e-01,0.000000000000000000e+00
5.879008932808034160e-01,-5.512341906977779038e-01,0.000000000000000000e+00
3.757394199936813228e-01,-2.379536684754598452e-01,0.000000000000000000e+00
3.433758054244592794e-01,7.532685374685815782e-02,0.000000000000000000e+00
1.132345462655472146e-01,1.345294721195796628e-01,0.000000000000000000e+00
-1.169067128933649058e-01,3.072037757066840569e-01,0.000000000000000000e+00
1.254774538352315325e-02,4.601438731695480233e-01,0.000000000000000000e+00
1.707698610552752516e-01,6.772201405361935045e-01,0.000000000000000000e+00
7.008306017325117987e-02,8.400273410611777125e-01,0.000000000000000000e+00
4.131540277838716829e-02,6.722865890051332727e-01,0.000000000000000000e+00
1.132345462655472146e-01,3.565392910172853203e-01,0.000000000000000000e+00
-3.060374070877287106e-02,4.079199302943727068e-02,0.000000000000000000e+00
-7.015926962671088785e-02,-3.321127993646462440e-02,0.000000000000000000e+00
-5.937139810363688264e-02,-4.307838299858487291e-02,0.000000000000000000e+00
-9.173501267285891214e-02,-4.307838299858487291e-02,0.000000000000000000e+00
-9.173501267285891214e-02,-5.294548606070512142e-02,0.000000000000000000e+00
-1.564622418113029434e-01,-4.801193452964499370e-02,0.000000000000000000e+00
-1.097147985446489116e-01,-5.294548606070512142e-02,0.000000000000000000e+00
-1.456743702882289104e-01,-7.267969218494563233e-02,0.000000000000000000e+00
-1.528662846369449324e-01,-5.294548606070512142e-02,0.000000000000000000e+00
-1.384824559395129162e-01,-6.774614065388549766e-02,0.000000000000000000e+00
-1.564622418113029434e-01,-7.761324371600575311e-02,0.000000000000000000e+00
-1.744420276830929428e-01,-6.774614065388549766e-02,0.000000000000000000e+00
-1.996137279035989365e-01,-9.734744984024626402e-02,0.000000000000000000e+00
-2.211894709497469746e-01,-1.022810013713063848e-01,0.000000000000000000e+00
-2.283813852984629411e-01,-1.121481044334266264e-01,0.000000000000000000e+00
-2.247854281241049301e-01,-1.466829651508475274e-01,0.000000000000000000e+00
-2.463611711702529683e-01,-1.565500682129677967e-01,0.000000000000000000e+00
-2.139975566010309804e-01,-1.516165166819076482e-01,0.000000000000000000e+00
-2.355732996471789908e-01,-1.762842743372082799e-01,0.000000000000000000e+00
-2.427652139958950128e-01,-2.206862381167494225e-01,0.000000000000000000e+00
-2.175935137753889637e-01,-2.305533411788696641e-01,0.000000000000000000e+00
-2.032096850779569475e-01,-2.650882018962905651e-01,0.000000000000000000e+00
-1.420784131138708994e-01,-2.552210988341702680e-01,0.000000000000000000e+00
-1.205026700677229168e-01,-2.404204442409899056e-01,0.000000000000000000e+00
-9.173501267285891214e-02,-2.749553049584108066e-01,0.000000000000000000e+00
-3.779565505748887222e-02,-2.354868927099298126e-01,0.000000000000000000e+00
1.254774538352315325e-02,-2.305533411788696641e-01,0.000000000000000000e+00
6.648710299889318276e-02,-2.108191350546291531e-01,0.000000000000000000e+00
8.446688887068319607e-02,-1.812178258682684007e-01,0.000000000000000000e+00
1.132345462655472146e-01,-1.368158620887272581e-01,0.000000000000000000e+00
1.527900751834852244e-01,-1.269487590266070165e-01,0.000000000000000000e+00
1.635779467065592574e-01,-1.022810013713063848e-01,0.000000000000000000e+00
1.851536897527072678e-01,-4.801193452964499370e-02,0.000000000000000000e+00
1.491941180091272412e-01,-5.294548606070512142e-02,0.000000000000000000e+00
1.779617754039912458e-01,-2.334417687434437241e-02,0.000000000000000000e+00
1.851536897527072678e-01,-8.543522281163994439e-03,0.000000000000000000e+00
1.276183749629792308e-01,-1.841062534328424469e-02,0.000000000000000000e+00
1.491941180091272412e-01,-1.347707381222412043e-02,0.000000000000000000e+00
1.455981608347692302e-01,1.612423537413663552e-02,0.000000000000000000e+00
9.165880321939919029e-02,-8.543522281163994439e-03,0.000000000000000000e+00
1.240224177886212337e-01,1.119068384307650953e-02,0.000000000000000000e+00
1.132345462655472146e-01,-3.609970750103867580e-03,0.000000000000000000e+00
1.204264606142632227e-01,2.105778690519676324e-02,0.000000000000000000e+00
9.885071756811519839e-02,1.119068384307650953e-02,0.000000000000000000e+00
1.204264606142632227e-01,2.105778690519676324e-02,0.000000000000000000e+00
1.276183749629792308e-01,1.323580780956258628e-03,0.000000000000000000e+00
1.060426319168311926e-01,1.612423537413663552e-02,0.000000000000000000e+00
1.024466747424731955e-01,0.000000000000000000e+00,0.000000000000000000e+00
1.276183749629792308e-01,1.323580780956258628e-03,0.000000000000000000e+00
1.204264606142632227e-01,-8.543522281163994439e-03,0.000000000000000000e+00
6.648710299889318276e-02,1.119068384307650953e-02,0.000000000000000000e+00
1.348102893116952250e-01,1.119068384307650953e-02,0.000000000000000000e+00
7.008306017325117987e-02,-1.347707381222412043e-02,0.000000000000000000e+00
7.008306017325117987e-02,1.323580780956258628e-03,0.000000000000000000e+00
9.885071756811519839e-02,-3.609970750103867580e-03,0.000000000000000000e+00
6.289114582453517177e-02,-3.609970750103867580e-03,0.000000000000000000e+00
6.648710299889318276e-02,1.612423537413663552e-02,0.000000000000000000e+00
7.008306017325117987e-02,-2.827772840540449667e-02,0.000000000000000000e+00
4.131540277838716829e-02,-8.543522281163994439e-03,0.000000000000000000e+00
5.929518865017718160e-02,1.119068384307650953e-02,0.000000000000000000e+00
3.771944560402916424e-02,2.105778690519676324e-02,0.000000000000000000e+00
8.806284604504119318e-02,5.065909609155752613e-02,0.000000000000000000e+00
1.024466747424731955e-01,7.532685374685815782e-02,0.000000000000000000e+00
1.132345462655472146e-01,6.052619915367778158e-02,0.000000000000000000e+00
7.727497452196718797e-02,5.559264762261764692e-02,0.000000000000000000e+00
1.348102893116952250e-01,3.585844149837714295e-02,0.000000000000000000e+00
4.131540277838716829e-02,-2.827772840540449667e-02,0.000000000000000000e+00
1.973965973223915787e-02,-2.827772840540449667e-02,0.000000000000000000e+00
2.333561690659716192e-02,-1.347707381222412043e-02,0.000000000000000000e+00
0.000000000000000000e+00,-1.841062534328424469e-02,0.000000000000000000e+00
0.000000000000000000e+00,-1.347707381222412043e-02,0.000000000000000000e+00
-1.981586918569886238e-02,-2.827772840540449667e-02,0.000000000000000000e+00
0.000000000000000000e+00,-4.307838299858487291e-02,0.000000000000000000e+00
-1.981586918569886238e-02,0.000000000000000000e+00,0.000000000000000000e+00
2.693157408095516250e-02,1.119068384307650953e-02,0.000000000000000000e+00
-4.139161223184688321e-02,-1.347707381222412043e-02,0.000000000000000000e+00
-4.139161223184688321e-02,1.323580780956258628e-03,0.000000000000000000e+00
1.254774538352315325e-02,1.323580780956258628e-03,0.000000000000000000e+00
-4.858352658056287743e-02,0.000000000000000000e+00,0.000000000000000000e+00
-1.981586918569886238e-02,-3.609970750103867580e-03,0.000000000000000000e+00
-3.779565505748887222e-02,2.599133843625689097e-02,0.000000000000000000e+00
-3.060374070877287106e-02,-1.347707381222412043e-02,0.000000000000000000e+00
-3.779565505748887222e-02,1.119068384307650953e-02,0.000000000000000000e+00
-2.341182636005686643e-02,3.585844149837714295e-02,0.000000000000000000e+00
1.254774538352315325e-02,1.049281629332189242e-01,1.927635024484003201e-01
0.000000000000000000e+00,0.000000000000000000e+00,1.927635024484003201e-01
0.000000000000000000e+00,0.000000000000000000e+00,1.927635024484003201e-01
0.000000000000000000e+00,0.000000000000000000e+00,1.927635024484003201e-01
0.000000000000000000e+00,0.000000000000000000e+00,1.927635024484003201e-01
0.000000000000000000e+00,0.000000000000000000e+00,1.927635024484003201e-01
0.000000000000000000e+00,0.000000000000000000e+00,1.927635024484003201e-01
0.000000000000000000e+00,0.000000000000000000e+00,1.927635024484003201e-01
0.000000000000000000e+00,0.000000000000000000e+00,1.927635024484003201e-01
0.000000000000000000e+00,0.000000000000000000e+00,1.927635024484003201e-01
0.000000000000000000e+00,0.000000000000000000e+00,1.927635024484003201e-01
0.000000000000000000e+00,0.000000000000000000e+00,1.927635024484003201e-01
0.000000000000000000e+00,0.000000000000000000e+00,1.927635024484003201e-01
0.000000000000000000e+00,0.000000000000000000e+00,1.927635024484003201e-01
0.000000000000000000e+00,0.000000000000000000e+00,1.927635024484003201e-01
0.000000000000000000e+00,0.000000000000000000e+00,1.927635024484003201e-01
0.000000000000000000e+00,0.000000000000000000e+00,1.927635024484003201e-01
0.000000000000000000e+00,0.000000000000000000e+00,1.927635024484003201e-01
0.000000000000000000e+00,0.000000000000000000e+00,1.927635024484003201e-01
0.000000000000000000e+00,0.000000000000000000e+00,1.927635024484003201e-01
0.000000000000000000e+00,0.000000000000000000e+00,1.927635024484003201e-01
0.000000000000000000e+00,0.000000000000000000e+00,1.927635024484003201e-01
0.000000000000000000e+00,0.000000000000000000e+00,1.927635024484003201e-01
0.000000000000000000e+00,0.000000000000000000e+00,1.927635024484003201e-01
0.000000000000000000e+00,0.000000000000000000e+00,1.927635024484003201e-01
0.000000000000000000e+00,0.000000000000000000e+00,1.927635024484003201e-01
0.000000000000000000e+00,0.000000000000000000e+00,1.927635024484003201e-01
0.000000000000000000e+00,0.000000000000000000e+00,1.927635024484003201e-01
0.000000000000000000e+00,0.000000000000000000e+00,1.927635024484003201e-01
0.000000000000000000e+00,0.000000000000000000e+00,1.927635024484003201e-01
0.000000000000000000e+00,0.000000000000000000e+00,1.927635024484003201e-01
0.000000000000000000e+00,0.000000000000000000e+00,1.927635024484003201e-01
0.000000000000000000e+00,0.000000000000000000e+00,1.927635024484003201e-01
0.000000000000000000e+00,0.000000000000000000e+00,1.927635024484003201e-01
0.000000000000000000e+00,0.000000000000000000e+00,1.927635024484003201e-01
0.000000000000000000e+00,0.000000000000000000e+00,1.927635024484003201e-01
0.000000000000000000e+00,0.000000000000000000e+00,1.927635024484003201e-01
0.000000000000000000e+00,0.000000000000000000e+00,1.927635024484003201e-01
0.000000000000000000e+00,0.000000000000000000e+00,1.927635024484003201e-01
0.000000000000000000e+00,0.000000000000000000e+00,1.927635024484003201e-01
0.000000000000000000e+00,0.000000000000000000e+00,1.927635024484003201e-01
0.000000000000000000e+00,0.000000000000000000e+00,1.927635024484003201e-01
0.000000000000000000e+00,0.000000000000000000e+00,1.927635024484003201e-01
0.000000000000000000e+00,0.000000000000000000e+00,1.927635024484003201e-01
0.000000000000000000e+00,0.000000000000000000e+00,1.927635024484003201e-01
0.000000000000000000e+00,0.000000000000000000e+00,1.927635024484003201e-01
0.000000000000000000e+00,0.000000000000000000e+00,1.927635024484003201e-01
0.000000000000000000e+00,0.000000000000000000e+00,1.927635024484003201e-01
0.000000000000000000e+00,0.000000000000000000e+00,1.927635024484003201e-01
0.000000000000000000e+00,0.000000000000000000e+00,1.927635024484003201e-01
0.000000000000000000e+00,0.000000000000000000e+00,1.927635024484003201e-01
0.000000000000000000e+00,0.000000000000000000e+00,1.927635024484003201e-01
0.000000000000000000e+00,0.000000000000000000e+00,1.927635024484003201e-01
0.000000000000000000e+00,0.000000000000000000e+00,1.927635024484003201e-01
0.000000000000000000e+00,0.000000000000000000e+00,1.927635024484003201e-01
0.000000000000000000e+00,0.000000000000000000e+00,1.927635024484003201e-01
