1.455981608347692302e-01,3.664063940794055618e-01,0.000000000000000000e+00
2.462849617167932603e-01,5.390806976665100114e-01,0.000000000000000000e+00
1.204264606142632227e-01,7.216221043157345916e-01,0.000000000000000000e+00
2.103253899732132892e-01,6.722865890051332727e-01,0.000000000000000000e+00
1.276183749629792308e-01,3.565392910172853203e-01,0.000000000000000000e+00
9.885071756811519839e-02,4.079199302943727068e-02,0.000000000000000000e+00
-1.621991201134086180e-02,-2.334417687434437241e-02,0.000000000000000000e+00
-4.858352658056287743e-02,-3.814483146752475212e-02,0.000000000000000000e+00
-5.937139810363688264e-02,-4.307838299858487291e-02,0.000000000000000000e+00
-6.656331245235289074e-02,-4.307838299858487291e-02,0.000000000000000000e+00
-7.375522680106889883e-02,-3.814483146752475212e-02,0.000000000000000000e+00
-1.097147985446489116e-01,-4.801193452964499370e-02,0.000000000000000000e+00
-1.133107557190069226e-01,-7.761324371600575311e-02,0.000000000000000000e+00
-1.169067128933649058e-01,-5.787903759176525609e-02,0.000000000000000000e+00
-1.420784131138708994e-01,-7.267969218494563233e-02,0.000000000000000000e+00
-1.205026700677229168e-01,-7.761324371600575311e-02,0.000000000000000000e+00
-1.888258563805249590e-01,-6.774614065388549766e-02,0.000000000000000000e+00
-1.816339420318089370e-01,-7.761324371600575311e-02,0.000000000000000000e+00
-1.996137279035989365e-01,-1.022810013713063848e-01,0.000000000000000000e+00
-2.355732996471789908e-01,-9.734744984024626402e-02,0.000000000000000000e+00
-2.463611711702529683e-01,-1.368158620887272581e-01,0.000000000000000000e+00
-2.463611711702529683e-01,-1.417494136197874066e-01,0.000000000000000000e+00
-2.427652139958950128e-01,-1.516165166819076482e-01,0.000000000000000000e+00
-2.535530855189689903e-01,-1.614836197440279175e-01,0.000000000000000000e+00
-2.715328713907590452e-01,-1.910849289303886422e-01,0.000000000000000000e+00
-2.355732996471789908e-01,-1.910849289303886422e-01,0.000000000000000000e+00
-1.816339420318089370e-01,-2.108191350546291531e-01,0.000000000000000000e+00
-1.564622418113029434e-01,-2.256197896478095433e-01,0.000000000000000000e+00
-1.169067128933649058e-01,-1.960184804614487630e-01,0.000000000000000000e+00
-8.094714114978489305e-02,-1.910849289303886422e-01,0.000000000000000000e+00
-4.858352658056287743e-02,-1.812178258682684007e-01,0.000000000000000000e+00
2.333561690659716192e-02,-1.516165166819076482e-01,0.000000000000000000e+00
4.491135995274516540e-02,-1.417494136197874066e-01,0.000000000000000000e+00
6.648710299889318276e-02,-1.121481044334266264e-01,0.000000000000000000e+00
8.806284604504119318e-02,-7.267969218494563233e-02,0.000000000000000000e+00
1.240224177886212337e-01,-5.294548606070512142e-02,0.000000000000000000e+00
1.132345462655472146e-01,-4.801193452964499370e-02,0.000000000000000000e+00
1.420022036604112470e-01,-1.347707381222412043e-02,0.000000000000000000e+00
1.312143321373372140e-01,-2.827772840540449667e-02,0.000000000000000000e+00
1.168305034399052117e-01,-2.827772840540449667e-02,0.000000000000000000e+00
1.599819895322012464e-01,1.612423537413663552e-02,0.000000000000000000e+00
9.525476039375720128e-02,-8.543522281163994439e-03,0.000000000000000000e+00
1.276183749629792308e-01,0.000000000000000000e+00,0.000000000000000000e+00
8.806284604504119318e-02,1.612423537413663552e-02,0.000000000000000000e+00
1.060426319168311926e-01,0.000000000000000000e+00,0.000000000000000000e+00
9.885071756811519839e-02,-3.609970750103867580e-03,0.000000000000000000e+00
8.806284604504119318e-02,1.612423537413663552e-02,0.000000000000000000e+00
9.525476039375720128e-02,1.323580780956258628e-03,0.000000000000000000e+00
8.446688887068319607e-02,0.000000000000000000e+00,0.000000000000000000e+00
7.367901734760917698e-02,2.105778690519676324e-02,0.000000000000000000e+00
1.024466747424731955e-01,2.105778690519676324e-02,0.000000000000000000e+00
7.367901734760917698e-02,-3.609970750103867580e-03,0.000000000000000000e+00
5.929518865017718160e-02,1.119068384307650953e-02,0.000000000000000000e+00
6.289114582453517177e-02,-3.609970750103867580e-03,0.000000000000000000e+00
7.008306017325117987e-02,0.000000000000000000e+00,0.000000000000000000e+00
9.525476039375720128e-02,0.000000000000000000e+00,0.000000000000000000e+00
5.210327430146116656e-02,1.323580780956258628e-03,0.000000000000000000e+00
3.771944560402916424e-02,1.612423537413663552e-02,0.000000000000000000e+00
4.491135995274516540e-02,1.323580780956258628e-03,0.000000000000000000e+00
5.569923147581917061e-02,1.323580780956258628e-03,0.000000000000000000e+00
3.052753125531316308e-02,-3.609970750103867580e-03,0.000000000000000000e+00
4.131540277838716829e-02,1.323580780956258628e-03,0.000000000000000000e+00
4.850731712710316945e-02,3.092488996731701523e-02,0.000000000000000000e+00
9.885071756811519839e-02,5.559264762261764692e-02,0.000000000000000000e+00
9.885071756811519839e-02,7.532685374685815782e-02,0.000000000000000000e+00
1.204264606142632227e-01,6.545975068473790237e-02,0.000000000000000000e+00
1.024466747424731955e-01,3.092488996731701523e-02,0.000000000000000000e+00
7.367901734760917698e-02,3.092488996731701523e-02,0.000000000000000000e+00
3.052753125531316308e-02,-3.814483146752475212e-02,0.000000000000000000e+00
5.569923147581917061e-02,-1.347707381222412043e-02,0.000000000000000000e+00
-1.621991201134086180e-02,-1.347707381222412043e-02,0.000000000000000000e+00
-1.621991201134086180e-02,-3.321127993646462440e-02,0.000000000000000000e+00
-1.981586918569886238e-02,-2.334417687434437241e-02,0.000000000000000000e+00
-3.779565505748887222e-02,-1.841062534328424469e-02,0.000000000000000000e+00
-1.836083313908854061e-03,-3.609970750103867580e-03,0.000000000000000000e+00
1.759873860449148036e-03,-3.609970750103867580e-03,0.000000000000000000e+00
-2.700778353441486701e-02,-3.609970750103867580e-03,0.000000000000000000e+00
-3.419969788313087511e-02,-1.841062534328424469e-02,0.000000000000000000e+00
-1.836083313908854061e-03,1.323580780956258628e-03,0.000000000000000000e+00
-9.027997662624857172e-03,2.105778690519676324e-02,0.000000000000000000e+00
-4.139161223184688321e-02,-3.609970750103867580e-03,0.000000000000000000e+00
-3.060374070877287106e-02,-1.841062534328424469e-02,0.000000000000000000e+00
-2.700778353441486701e-02,0.000000000000000000e+00,0.000000000000000000e+00
1.759873860449148036e-03,0.000000000000000000e+00,0.000000000000000000e+00
-4.139161223184688321e-02,7.532685374685815782e-02,0.000000000000000000e+00
1.254774538352315325e-02,4.572554456049739841e-02,0.000000000000000000e+00
8.806284604504119318e-02,-4.801193452964499370e-02,0.000000000000000000e+00
2.498809188911512713e-01,-3.637592325174930918e-01,0.000000000000000000e+00
4.782241994628844139e-01,-5.364335361045974304e-01,0.000000000000000000e+00
2.480829403039722658e-01,-2.231530138822794551e-01,0.000000000000000000e+00
2.067294327988552782e-01,9.012750834003853406e-02,0.000000000000000000e+00
-2.341182636005686643e-02,1.295959205885195420e-01,0.000000000000000000e+00
-7.735118397542689594e-02,3.121373272377442332e-01,0.000000000000000000e+00
4.491135995274516540e-02,4.354761155142474194e-01,1.927635024484003201e-01
0.000000000000000000e+00,0.000000000000000000e+00,1.927635024484003201e-01
0.000000000000000000e+00,0.000000000000000000e+00,1.927635024484003201e-01
0.000000000000000000e+00,0.000000000000000000e+00,1.927635024484003201e-01
0.000000000000000000e+00,0.000000000000000000e+00,1.927635024484003201e-01
0.000000000000000000e+00,0.000000000000000000e+00,1.927635024484003201e-01
0.000000000000000000e+00,0.000000000000000000e+00,1.927635024484003201e-01
0.000000000000000000e+00,0.000000000000000000e+00,1.927635024484003201e-01
0.000000000000000000e+00,0.000000000000000000e+00,1.927635024484003201e-01
0.000000000000000000e+00,0.000000000000000000e+00,1.927635024484003201e-01
0.000000000000000000e+00,0.000000000000000000e+00,1.927635024484003201e-01
0.000000000000000000e+00,0.000000000000000000e+00,1.927635024484003201e-01
0.000000000000000000e+00,0.000000000000000000e+00,1.927635024484003201e-01
0.000000000000000000e+00,0.000000000000000000e+00,1.927635024484003201e-01
0.000000000000000000e+00,0.000000000000000000e+00,1.927635024484003201e-01
0.000000000000000000e+00,0.000000000000000000e+00,1.927635024484003201e-01
0.000000000000000000e+00,0.000000000000000000e+00,1.927635024484003201e-01
0.000000000000000000e+00,0.000000000000000000e+00,1.927635024484003201e-01
0.000000000000000000e+00,0.000000000000000000e+00,1.927635024484003201e-01
0.000000000000000000e+00,0.000000000000000000e+00,1.927635024484003201e-01
0.000000000000000000e+00,0.000000000000000000e+00,1.927635024484003201e-01
0.000000000000000000e+00,0.000000000000000000e+00,1.927635024484003201e-01
0.000000000000000000e+00,0.000000000000000000e+00,1.927635024484003201e-01
0.000000000000000000e+00,0.000000000000000000e+00,1.927635024484003201e-01
0.000000000000000000e+00,0.000000000000000000e+00,1.927635024484003201e-01
0.000000000000000000e+00,0.000000000000000000e+00,1.927635024484003201e-01
0.000000000000000000e+00,0.000000000000000000e+00,1.927635024484003201e-01
0.000000000000000000e+00,0.000000000000000000e+00,1.927635024484003201e-01
0.000000000000000000e+00,0.000000000000000000e+00,1.927635024484003201e-01
0.000000000000000000e+00,0.000000000000000000e+00,1.927635024484003201e-01
0.000000000000000000e+00,0.000000000000000000e+00,1.927635024484003201e-01
0.000000000000000000e+00,0.000000000000000000e+00,1.927635024484003201e-01
0.000000000000000000e+00,0.000000000000000000e+00,1.927635024484003201e-01
0.000000000000000000e+00,0.000000000000000000e+00,1.927635024484003201e-01
0.000000000000000000e+00,0.000000000000000000e+00,1.927635024484003201e-01
0.000000000000000000e+00,0.000000000000000000e+00,1.927635024484003201e-01
0.000000000000000000e+00,0.000000000000000000e+00,1.927635024484003201e-01
0.000000000000000000e+00,0.000000000000000000e+00,1.927635024484003201e-01
0.000000000000000000e+00,0.000000000000000000e+00,1.927635024484003201e-01
0.000000000000000000e+00,0.000000000000000000e+00,1.927635024484003201e-01
0.000000000000000000e+00,0.000000000000000000e+00,1.927635024484003201e-01
0.000000000000000000e+00,0.000000000000000000e+00,1.927635024484003201e-01
0.000000000000000000e+00,0.000000000000000000e+00,1.927635024484003201e-01
0.000000000000000000e+00,0.000000000000000000e+00,1.927635024484003201e-01
0.000000000000000000e+00,0.000000000000000000e+00,1.927635024484003201e-01
0.000000000000000000e+00,0.000000000000000000e+00,1.927635024484003201e-01
0.000000000000000000e+00,0.000000000000000000e+00,1.927635024484003201e-01
0.000000000000000000e+00,0.000000000000000000e+00,1.927635024484003201e-01
0.000000000000000000e+00,0.000000000000000000e+00,1.927635024484003201e-01
0.000000000000000000e+00,0.000000000000000000e+00,1.927635024484003201e-01
0.000000000000000000e+00,0.000000000000000000e+00,1.927635024484003201e-01
0.000000000000000000e+00,0.000000000000000000e+00,1.927635024484003201e-01
0.000000000000000000e+00,0.000000000000000000e+00,1.927635024484003201e-01
0.000000000000000000e+00,0.000000000000000000e+00,1.927635024484003201e-01
0.000000000000000000e+00,0.000000000000000000e+00,1.927635024484003201e-01
0.000000000000000000e+00,0.000000000000000000e+00,1.927635024484003201e-01
0.000000000000000000e+00,0.000000000000000000e+00,1.927635024484003201e-01
0.000000000000000000e+00,0.000000000000000000e+00,1.927635024484003201e-01
0.000000000000000000e+00,0.000000000000000000e+00,1.927635024484003201e-01
