4.296787776090513211e-01,5.884162129771112193e-01,0.000000000000000000e+00
4.296787776090513211e-01,7.610905165642155579e-01,0.000000000000000000e+00
3.253960195526693355e-01,8.548279956543580749e-01,0.000000000000000000e+00
3.541636769475333124e-01,5.390806976665100114e-01,0.000000000000000000e+00
2.678607047629412707e-01,2.233333996786619480e-01,0.000000000000000000e+00
3.771944560402916424e-02,5.065909609155752613e-02,0.000000000000000000e+00
-5.937139810363688264e-02,-1.841062534328424469e-02,0.000000000000000000e+00
-1.025228841959329035e-01,-1.347707381222412043e-02,0.000000000000000000e+00
-1.205026700677229168e-01,-3.609970750103867580e-03,0.000000000000000000e+00
-1.780379848574509538e-01,-3.321127993646462440e-02,0.000000000000000000e+00
-1.600581989856609266e-01,-4.307838299858487291e-02,0.000000000000000000e+00
-1.888258563805249590e-01,-3.814483146752475212e-02,0.000000000000000000e+00
-1.924218135548829423e-01,-4.307838299858487291e-02,0.000000000000000000e+00
-2.032096850779569475e-01,-4.307838299858487291e-02,0.000000000000000000e+00
-2.211894709497469746e-01,-2.827772840540449667e-02,0.000000000000000000e+00
-2.319773424728210076e-01,-4.307838299858487291e-02,0.000000000000000000e+00
-2.283813852984629411e-01,-6.281258912282537687e-02,0.000000000000000000e+00
-2.643409570420430232e-01,-5.294548606070512142e-02,0.000000000000000000e+00
-2.463611711702529683e-01,-7.267969218494563233e-02,0.000000000000000000e+00
-2.643409570420430232e-01,-6.774614065388549766e-02,0.000000000000000000e+00
-2.679369142164010342e-01,-9.241389830918614323e-02,0.000000000000000000e+00
-2.859167000881909781e-01,-9.734744984024626402e-02,0.000000000000000000e+00
-2.715328713907590452e-01,-1.170816559644867610e-01,0.000000000000000000e+00
-2.679369142164010342e-01,-1.269487590266070165e-01,0.000000000000000000e+00
-2.679369142164010342e-01,-1.565500682129677967e-01,0.000000000000000000e+00
-2.283813852984629411e-01,-1.417494136197874066e-01,0.000000000000000000e+00
-2.139975566010309804e-01,-1.664171712750880383e-01,0.000000000000000000e+00
-1.672501133343769208e-01,-1.713507228061481591e-01,0.000000000000000000e+00
-1.240986272420809000e-01,-1.614836197440279175e-01,0.000000000000000000e+00
-6.296735527799489363e-02,-1.565500682129677967e-01,0.000000000000000000e+00
-2.341182636005686643e-02,-1.614836197440279175e-01,0.000000000000000000e+00
4.131540277838716829e-02,-1.318823105576671373e-01,0.000000000000000000e+00
7.008306017325117987e-02,-1.072145529023665056e-01,0.000000000000000000e+00
1.204264606142632227e-01,-8.254679524706588778e-02,0.000000000000000000e+00
1.348102893116952250e-01,-4.801193452964499370e-02,0.000000000000000000e+00
1.743658182296332626e-01,-4.307838299858487291e-02,0.000000000000000000e+00
1.923456041014232620e-01,-1.347707381222412043e-02,0.000000000000000000e+00
1.707698610552752516e-01,0.000000000000000000e+00,0.000000000000000000e+00
1.779617754039912458e-01,2.105778690519676324e-02,0.000000000000000000e+00
1.635779467065592574e-01,1.119068384307650953e-02,0.000000000000000000e+00
1.635779467065592574e-01,3.585844149837714295e-02,0.000000000000000000e+00
1.348102893116952250e-01,3.092488996731701523e-02,0.000000000000000000e+00
1.420022036604112470e-01,2.599133843625689097e-02,0.000000000000000000e+00
1.348102893116952250e-01,3.585844149837714295e-02,0.000000000000000000e+00
1.384062464860532360e-01,3.092488996731701523e-02,0.000000000000000000e+00
1.132345462655472146e-01,2.105778690519676324e-02,0.000000000000000000e+00
1.204264606142632227e-01,2.599133843625689097e-02,0.000000000000000000e+00
1.132345462655472146e-01,3.092488996731701523e-02,0.000000000000000000e+00
1.096385890911892036e-01,1.119068384307650953e-02,0.000000000000000000e+00
9.525476039375720128e-02,4.079199302943727068e-02,0.000000000000000000e+00
1.168305034399052117e-01,2.105778690519676324e-02,0.000000000000000000e+00
9.525476039375720128e-02,3.092488996731701523e-02,0.000000000000000000e+00
9.165880321939919029e-02,2.105778690519676324e-02,0.000000000000000000e+00
7.008306017325117987e-02,3.092488996731701523e-02,0.000000000000000000e+00
7.727497452196718797e-02,1.119068384307650953e-02,0.000000000000000000e+00
8.087093169632518508e-02,5.559264762261764692e-02,0.000000000000000000e+00
6.648710299889318276e-02,0.000000000000000000e+00,0.000000000000000000e+00
5.569923147581917061e-02,2.105778690519676324e-02,0.000000000000000000e+00
7.367901734760917698e-02,1.119068384307650953e-02,0.000000000000000000e+00
6.289114582453517177e-02,3.092488996731701523e-02,0.000000000000000000e+00
5.210327430146116656e-02,2.105778690519676324e-02,0.000000000000000000e+00
4.850731712710316945e-02,2.599133843625689097e-02,0.000000000000000000e+00
2.333561690659716192e-02,3.092488996731701523e-02,0.000000000000000000e+00
7.008306017325117987e-02,3.092488996731701523e-02,0.000000000000000000e+00
3.412348842967116713e-02,3.092488996731701523e-02,0.000000000000000000e+00
3.771944560402916424e-02,4.079199302943727068e-02,0.000000000000000000e+00
1.973965973223915787e-02,3.092488996731701523e-02,0.000000000000000000e+00
5.210327430146116656e-02,4.079199302943727068e-02,0.000000000000000000e+00
3.052753125531316308e-02,4.079199302943727068e-02,0.000000000000000000e+00
4.131540277838716829e-02,3.092488996731701523e-02,0.000000000000000000e+00
3.771944560402916424e-02,3.585844149837714295e-02,0.000000000000000000e+00
3.052753125531316308e-02,4.572554456049739841e-02,0.000000000000000000e+00
4.131540277838716829e-02,2.599133843625689097e-02,0.000000000000000000e+00
4.491135995274516540e-02,5.559264762261764692e-02,0.000000000000000000e+00
7.727497452196718797e-02,9.012750834003853406e-02,0.000000000000000000e+00
1.312143321373372140e-01,1.246623690574594212e-01,0.000000000000000000e+00
1.276183749629792308e-01,1.197288175263992865e-01,0.000000000000000000e+00
1.096385890911892036e-01,9.506105987109865485e-02,0.000000000000000000e+00
1.024466747424731955e-01,5.559264762261764692e-02,0.000000000000000000e+00
5.929518865017718160e-02,2.599133843625689097e-02,0.000000000000000000e+00
4.850731712710316945e-02,3.092488996731701523e-02,0.000000000000000000e+00
4.850731712710316945e-02,1.119068384307650953e-02,0.000000000000000000e+00
1.614370255788115729e-02,0.000000000000000000e+00,0.000000000000000000e+00
2.693157408095516250e-02,0.000000000000000000e+00,0.000000000000000000e+00
1.614370255788115729e-02,3.092488996731701523e-02,0.000000000000000000e+00
-5.432040488266855725e-03,3.092488996731701523e-02,0.000000000000000000e+00
1.614370255788115729e-02,3.585844149837714295e-02,0.000000000000000000e+00
-9.027997662624857172e-03,1.323580780956258628e-03,0.000000000000000000e+00
1.759873860449148036e-03,3.585844149837714295e-02,0.000000000000000000e+00
0.000000000000000000e+00,2.105778690519676324e-02,0.000000000000000000e+00
0.000000000000000000e+00,2.105778690519676324e-02,0.000000000000000000e+00
-5.432040488266855725e-03,3.092488996731701523e-02,0.000000000000000000e+00
1.759873860449148036e-03,1.612423537413663552e-02,0.000000000000000000e+00
1.759873860449148036e-03,0.000000000000000000e+00,0.000000000000000000e+00
-1.981586918569886238e-02,3.092488996731701523e-02,0.000000000000000000e+00
1.759873860449148036e-03,6.052619915367778158e-02,0.000000000000000000e+00
3.771944560402916424e-02,1.098617144642790450e-01,0.000000000000000000e+00
5.929518865017718160e-02,2.599133843625689097e-02,1.927635024484003201e-01
0.000000000000000000e+00,0.000000000000000000e+00,1.927635024484003201e-01
0.000000000000000000e+00,0.000000000000000000e+00,1.927635024484003201e-01
0.000000000000000000e+00,0.000000000000000000e+00,1.927635024484003201e-01
0.000000000000000000e+00,0.000000000000000000e+00,1.927635024484003201e-01
0.000000000000000000e+00,0.000000000000000000e+00,1.927635024484003201e-01
0.000000000000000000e+00,0.000000000000000000e+00,1.927635024484003201e-01
0.000000000000000000e+00,0.000000000000000000e+00,1.927635024484003201e-01
0.000000000000000000e+00,0.000000000000000000e+00,1.927635024484003201e-01
0.000000000000000000e+00,0.000000000000000000e+00,1.927635024484003201e-01
0.000000000000000000e+00,0.000000000000000000e+00,1.927635024484003201e-01
0.000000000000000000e+00,0.000000000000000000e+00,1.927635024484003201e-01
0.000000000000000000e+00,0.000000000000000000e+00,1.927635024484003201e-01
0.000000000000000000e+00,0.000000000000000000e+00,1.927635024484003201e-01
0.000000000000000000e+00,0.000000000000000000e+00,1.927635024484003201e-01
0.000000000000000000e+00,0.000000000000000000e+00,1.927635024484003201e-01
0.000000000000000000e+00,0.000000000000000000e+00,1.927635024484003201e-01
0.000000000000000000e+00,0.000000000000000000e+00,1.927635024484003201e-01
0.000000000000000000e+00,0.000000000000000000e+00,1.927635024484003201e-01
0.000000000000000000e+00,0.000000000000000000e+00,1.927635024484003201e-01
0.000000000000000000e+00,0.000000000000000000e+00,1.927635024484003201e-01
0.000000000000000000e+00,0.000000000000000000e+00,1.927635024484003201e-01
0.000000000000000000e+00,0.000000000000000000e+00,1.927635024484003201e-01
0.000000000000000000e+00,0.000000000000000000e+00,1.927635024484003201e-01
0.000000000000000000e+00,0.000000000000000000e+00,1.927635024484003201e-01
0.000000000000000000e+00,0.000000000000000000e+00,1.927635024484003201e-01
0.000000000000000000e+00,0.000000000000000000e+00,1.927635024484003201e-01
0.000000000000000000e+00,0.000000000000000000e+00,1.927635024484003201e-01
0.000000000000000000e+00,0.000000000000000000e+00,1.927635024484003201e-01
0.000000000000000000e+00,0.000000000000000000e+00,1.927635024484003201e-01
0.000000000000000000e+00,0.000000000000000000e+00,1.927635024484003201e-01
0.000000000000000000e+00,0.000000000000000000e+00,1.927635024484003201e-01
0.000000000000000000e+00,0.000000000000000000e+00,1.927635024484003201e-01
0.000000000000000000e+00,0.000000000000000000e+00,1.927635024484003201e-01
0.000000000000000000e+00,0.000000000000000000e+00,1.927635024484003201e-01
0.000000000000000000e+00,0.000000000000000000e+00,1.927635024484003201e-01
0.000000000000000000e+00,0.000000000000000000e+00,1.927635024484003201e-01
0.000000000000000000e+00,0.000000000000000000e+00,1.927635024484003201e-01
0.000000000000000000e+00,0.000000000000000000e+00,1.927635024484003201e-01
0.000000000000000000e+00,0.000000000000000000e+00,1.927635024484003201e-01
0.000000000000000000e+00,0.000000000000000000e+00,1.927635024484003201e-01
0.000000000000000000e+00,0.000000000000000000e+00,1.927635024484003201e-01
0.000000000000000000e+00,0.000000000000000000e+00,1.927635024484003201e-01
0.000000000000000000e+00,0.000000000000000000e+00,1.927635024484003201e-01
0.000000000000000000e+00,0.000000000000000000e+00,1.927635024484003201e-01
0.000000000000000000e+00,0.000000000000000000e+00,1.927635024484003201e-01
0.000000000000000000e+00,0.000000000000000000e+00,1.927635024484003201e-01
0.000000000000000000e+00,0.000000000000000000e+00,1.927635024484003201e-01
0.000000000000000000e+00,0.000000000000000000e+00,1.927635024484003201e-01
0.000000000000000000e+00,0.000000000000000000e+00,1.927635024484003201e-01
0.000000000000000000e+00,0.000000000000000000e+00,1.927635024484003201e-01
0.000000000000000000e+00,0.000000000000000000e+00,1.927635024484003201e-01
0.000000000000000000e+00,0.000000000000000000e+00,1.927635024484003201e-01
0.000000000000000000e+00,0.000000000000000000e+00,1.927635024484003201e-01
0.000000000000000000e+00,0.000000000000000000e+00,1.927635024484003201e-01
